##TITLE=Slow Time Series_003_SpecData 1(0)
##JCAMP-DX=5.00 $$ WITec Project (Version 2.10)
##SPECTROMETER/DATA SYSTEM=WITec Raman Microscope
##DATA TYPE=RAMAN SPECTRUM
##DATA CLASS=XYDATA
##ORIGIN=
##OWNER=
##NPOINTS=3955
##FIRSTX=-1.4038167E+02
##LASTX=3.7871922E+03
##MAXX=3.7871922E+03
##MINX=-1.4038167E+02
##MAXY=8.6930267E+03
##MINY=9.0155515E+02
##XFACTOR=1.0000000E-04
##YFACTOR=1.0000000E-04
##FIRSTY=9.1200000E+02
##DELTAX=9.9331662E-01
##XUNITS=1/CM
##YUNITS=ARBITRARY UNITS
##XYDATA=(X++(Y..Y))
    -1403816     9120000     9162368     9202168     9236830     9263785
    -1354150     9280464     9285350     9280620     9269270     9254294
    -1304485     9238684     9224784     9212939     9203105     9195242
    -1254819     9189307     9185183     9182544     9181031     9180287
    -1205153     9179953     9180040     9181413     9185058     9191959
    -1155487     9203093     9218182     9234439     9248775     9258104
    -1105821     9259368     9251748     9238285     9222395     9207498
    -1056155     9196969     9192055     9190873     9191289     9191170
    -1006490     9188427     9182568     9175097     9167642     9161833
     -956824     9159278     9161116     9167981     9180485     9199241
     -907158     9224680     9253840     9280752     9299337     9303520
     -857492     9287815     9255077     9214338     9174775     9145565
     -807826     9135034     9142317     9160925     9184291     9205848
     -758160     9219659     9225092     9224156     9218882     9211301
     -708495     9203338     9196233     9190950     9188453     9189704
     -658829     9195238     9203393     9211811     9218133     9219998
     -609163     9215932     9207982     9199075     9192136     9190089
     -559497     9194643     9203749     9214638     9224539     9230685
     -509831     9231604     9228925     9224729     9221098     9220101
     -460165     9222478     9226489     9230126     9231380     9228280
     -410500     9220759     9211506     9203426     9199425     9202299
     -360834     9211726     9223878     9234739     9240291     9236776
     -311168     9225050     9209985     9196587     9189863     9194336
     -261502     9208683     9227682     9246044     9258479     9260440
     -211836     9253656     9243011     9233413     9229769     9235959
     -162170     9249676     9266313     9281259     9289903     9288852
     -112505     9279964     9266518     9251790     9239057     9230616
      -62839     9225746     9223140     9221496     9219520     9218301
      -13173     9224221     9244377     9285865     9355546     9444420
       36492     9517907     9539108     9471121     9280836     9053916
       86158     9015551     9398906    10437148    12346560    15047020
      135824    18205531    21480987    24532284    27031618    28795472
      185489    29728731    29737555    28728109    26651638    23778318
      235155    20515856    17272501    14456502    12396117    11041119
      284821    10229450     9799038     9587819     9464160     9393123
      334487     9358932     9345813     9338023     9325559     9310772
      384153     9297618     9290051     9291966     9303937     9321636
      433819     9340339     9355324     9362039     9360049     9353121
      483484     9345213     9340281     9341953     9349540     9359334
      533150     9367561     9370450     9364997     9354228     9344013
      582816     9340240     9348796     9373673     9409532     9448163
      632482     9481352     9500890     9502429     9493725     9484900
      682148     9486076     9507346     9555036     9627856     9723602
      731814     9840067     9975313    10138182    10351808    10640305
      781479    11027790    11538564    12200333    13043775    14099668
      831145    15398791    16973074    18865782    21126625    23805389
      880811    26951860    30595104    34644321    38965709    43425406
      930477    47889554    52238649    56403345    60325250    63945972
      980143    67207248    70073886    72560086    74686420    76473460
     1029809    77942323    79137008    80132276    81005050    81832251
     1079474    82686995    83575788    84448479    85253105    85937707
     1129140    86453833    86784690    86930267    86890706    86666151
     1178806    86261201    85703175    85026616    84266069    83456078
     1228472    82628511    81807334    81015062    80274208    79607217
     1278138    79030388    78549248    78168231    77891772    77723557
     1327803    77647857    77628226    77627209    77607351    77533610
     1377469    77399136    77215315    76993846    76746423    76484690
     1427135    76219964    75963442    75726320    75519790    75342567
     1476801    75150907    74892046    74513217    73962071    73235175
     1526467    72423518    71628850    70952925    70494944    70280214
     1576133    70250503    70343091    70495263    70645881    70752899
     1625798    70786930    70718812    70519386    70167105    69686683
     1675464    69120202    68509777    67897521    67321792    66808788
     1725130    66382251    66065920    65883131    65820609    65799885
     1774796    65735766    65543056    65139844    64521377    63760988
     1824462    62935481    62121662    61391783    60772976    60266574
     1874128    59873609    59595110    59428115    59349971    59331961
     1923793    59345369    59361498    59360312    59343942    59318013
     1973459    59288149    59259669    59224077    59153737    59019603
     2023125    58792632    58448514    58033241    57646643    57389921
     2072791    57364273    57648013    58166151    58780737    59353630
     2122457    59746696    59867604    59776013    59563070    59319919
     2172123    59137204    59065496    59086819    59176482    59309791
     2221788    59462534    59619976    59776077    59925117    60061377
     2271454    60180842    60293284    60415147    60562918    60753083
     2321120    60991981    61247063    61476461    61638308    61690932
     2370786    61614233    61429039    61160748    60834756    60476648
     2420452    60116211    59787373    59524239    59360914    59325643
     2470118    59396485    59526000    59666543    59770471    59803890
     2519783    59786804    59752421    59733951    59764372    59851698
     2569449    59956919    60035823    60044197    59939850    59723334
     2619115    59435960    59120662    58820377    58572886    58375029
     2668781    58204126    58037374    57851973    57633996    57401031
     2718447    57177654    56988441    56857678    56788008    56745820
     2768113    56694048    56595622    56415908    56161091    55871214
     2817778    55587342    55350544    55194469    55104681    55047563
     2867444    54989447    54896684    54752562    54588756    54445525
     2917110    54363130    54380958    54501906    54679968    54865717
     2966776    55009723    55065864    55026617    54909449    54732245
     3016442    54512894    54269028    54017076    53773116    53553226
     3066108    53373459    53246445    53177728    53171979    53233866
     3115773    53367061    53553558    53754353    53929582    54039380
     3165439    54050748    53981502    53872267    53763774    53696746
     3215105    53696933    53744187    53809590    53864228    53879598
     3264771    53845149    53774803    53684239    53589136    53502975
     3314437    53414568    53297230    53124031    52868044    52520481
     3364103    52151024    51850576    51710038    51819512    52191719
     3413768    52698523    53196849    53543624    53603589    53370307
     3463434    52942941    52423767    51915065    51507993    51229948
     3513100    51085642    51079760    51216912    51483258    51822417
     3562766    52172032    52469744    52655091    52711571    52666856
     3612432    52550559    52392292    52221191    52063013    51942041
     3662098    51882552    51908803    52030884    52219777    52439772
     3711763    52655160    52831079    52958545    53058645    53154148
     3761429    53267828    53418150    53587638    53740931    53842536
     3811095    53856973    53772024    53647754    53558226    53577503
     3860761    53777475    54150124    54586211    54969981    55185683
     3910427    55133373    54856918    54476952    54114832    53891899
     3960093    53882883    54009685    54162935    54233266    54113535
     4009758    53783813    53337809    52876860    52502304    52304851
     4059424    52277478    52360517    52493792    52617131    52682352
     4109090    52680105    52608882    52467178    52254140    51992720
     4158756    51735967    51538857    51456366    51533961    51735052
     4208422    51981094    52193206    52292530    52234783    52079265
     4258088    51904590    51789374    51810052    51976868    52223511
     4307753    52479403    52673966    52745210    52695899    52558328
     4357419    52364940    52148168    51935633    51742439    51581676
     4407085    51466437    51409520    51416965    51488056    51621787
     4456751    51817149    52068707    52343699    52598955    52791284
     4506417    52877669    52845108    52744515    52635002    52575677
     4556083    52621873    52767276    52955371    53128180    53227725
     4605748    53213293    53126164    53031935    52996206    53083940
     4655414    53314418    53631469    53971857    54272345    54474098
     4705080    54567240    54572467    54510940    54403822    54273751
     4754746    54148449    54056726    54027394    54088214    54231525
     4804412    54406537    54559850    54638063    54596278    54452173
     4854077    54251375    54039642    53862661    53746328    53669866
     4903743    53605771    53526540    53407166    53266292    53159718
     4953409    53144427    53277402    53591817    54008706    54416116
     5003075    54702091    54756145    54556954    54221888    53880310
     5052741    53661581    53679442    53897534    54195789    54453230
     5102407    54548934    54413989    54128711    53800015    53534815
     5152072    53435624    53506356    53653767    53780498    53789190
     5201738    53606741    53290547    52941705    52661340    52549633
     5251404    52633622    52816440    52989233    53043145    52882308
     5301070    52544381    52145547    51802993    51633864    51705631
     5350736    51940125    52232620    52478394    52576269    52502842
     5400402    52310401    52054371    51790175    51570108    51430475
     5450067    51402485    51517344    51805440    52246579    52741294
     5499733    53183202    53465917    53496716    53304906    52983964
     5549399    52627940    52330809    52157309    52098669    52134753
     5599065    52245421    52410847    52616338    52851419    53105738
     5648731    53368943    53626891    53850088    54005155    54058715
     5698397    53978785    53782074    53545505    53349731    53275410
     5748062    53387801    53653148    53998495    54350789    54637296
     5797728    54816576    54904520    54923143    54894465    54839454
     5847394    54768332    54685001    54593282    54496998    54401435
     5897060    54315817    54250021    54213928    54216036    54241398
     5946726    54255461    54223066    54109057    53898162    53653316
     5996392    53456672    53390385    53533697    53877963    54313133
     6046057    54723530    54993479    55032464    54891508    54671076
     6095723    54471688    54392951    54479263    54689036    54973241
     6145389    55282847    55569046    55784787    55883856    55820046
     6195055    55547521    55077620    54539835    54078280    53837071
     6244721    53945331    54365488    54955924    55573441    56074916
     6294387    56365606    56481372    56479903    56418883    56353118
     6344052    56292399    56210876    56081728    55878129    55588389
     6393718    55253245    54924778    54655072    54494502    54455808
     6443384    54514973    54646450    54824694    55026800    55241342
     6493050    55460011    55674496    55876190    56047213    56158787
     6542716    56181514    56085996    55858600    55569260    55315489
     6592382    55194816    55302571    55635835    56056178    56415274
     6642047    56564799    56387431    55961319    55440595    54979556
     6691713    54731072    54757154    54976062    55293336    55614519
     6741379    55855142    56003761    56081359    56109065    56107894
     6791045    56088962    56045825    55970244    55853976    55691302
     6840711    55497331    55297437    55117065    54981543    54902098
     6890377    54862625    54843892    54826663    54794608    54757709
     6940042    54739950    54765443    54858188    55024518    55234275
     6989708    55452784    55645368    55779868    55848409    55856701
     7039374    55810607    55715992    55579701    55410674    55218123
     7089040    55011260    54799372    54592490    54401074    54235587
     7138706    54106447    54015619    53946688    53880829    53799217
     7188372    53685471    53547521    53407225    53286607    53207630
     7238037    53181996    53199412    53246746    53310866    53379879
     7287703    53453808    53539323    53643168    53772010    53921125
     7337369    54062349    54164629    54196913    54133603    53998245
     7387035    53840409    53709902    53656274    53698925    53799157
     7436701    53911657    53991114    54000302    53968211    53956249
     7486367    54026047    54238604    54600166    55020617    55400045
     7536032    55638539    55653042    55482613    55220088    54958538
     7585698    54790374    54767078    54875910    55098509    55416516
     7635364    55806652    56214933    56575552    56822680    56891965
     7685030    56783820    56587175    56397341    56309630    56392790
     7734696    56576289    56744098    56780161    56572122    56121217
     7784362    55560866    55031923    54675247    54595654    54743092
     7834027    55025923    55352507    55633662    55833574    55968062
     7883693    56055065    56112515    56148650    56138440    56049730
     7933359    55850364    55513091    55086262    54677580    54396342
     7983025    54351739    54590996    54995487    55419137    55715868
     8032691    55753545    55553543    55232357    54907897    54697759
     8082357    54672293    54804854    55056883    55389822    55763275
     8132022    56122359    56405336    56550422    56496853    56245065
     8181688    55890441    55536539    55286918    55227716    55347336
     8231354    55600117    55940365    56322462    56703095    57041614
     8281020    57297515    57430294    57416285    57298155    57134902
     8330686    56985525    56906254    56905919    56953572    57017028
     8380352    57064112    57067292    57011633    56884316    56672522
     8430017    56366506    55988478    55579608    55181317    54834932
     8479683    54572405    54408298    54355283    54426035    54623900
     8529349    54891134    55145400    55304297    55287812    55102803
     8579015    54865597    54699513    54727866    55024503    55457744
     8628681    55842539    55993837    55738876    55116451    54343675
     8678346    53643235    53237619    53253957    53571301    54028879
     8728012    54465918    54736042    54827586    54802434    54723214
     8777678    54652184    54625837    54638547    54680803    54743093
     8827344    54819768    54926032    55084085    55316136    55643306
     8877010    56060561    56536048    57036696    57529434    57981389
     8926676    58360313    58634080    58770563    58741397    58560429
     8976341    58268042    57905031    57512074    57118538    56733158
     9026007    56362471    56013013    55694243    55432855    55261845
     9075673    55214217    55320990    55561003    55857045    56129140
     9125339    56297321    56307622    56189021    55986999    55747041
     9175005    55512146    55297944    55103088    54925978    54765173
     9224671    54632781    54564559    54598643    54773166    55108163
     9274336    55525562    55914206    56162913    56165656    55928673
     9324002    55567098    55200543    54948550    54881901    54937180
     9373668    55028085    55068318    54982876    54797344    54590060
     9423334    54439830    54424318    54565251    54804110    55076179
     9473000    55316743    55477368    55577973    55656413    55750538
     9522666    55896116    56098630    56340712    56604433    56871864
     9572331    57124900    57345080    57513901    57612859    57630560
     9621997    57598854    57565845    57579667    57686052    57873417
     9671663    58071719    58208280    58210471    58040284    57755330
     9721329    57429583    57137020    56944648    56860830    56864565
     9770995    56934637    57049587    57178538    57278286    57304799
     9820661    57214044    56984117    56672354    56353817    56103571
     9870326    55991804    56034475    56213670    56510954    56907464
     9919992    57356259    57765641    58039910    58083367    57837642
     9969658    57408193    56945411    56599692    56511959    56690860
    10019324    57047836    57492080    57933107    58313225    58635302
    10068990    58908750    59142976    59345482    59514086    59643549
    10118656    59728629    59766212    59788140    59854869    60027694
    10168321    60367501    60876636    61438691    61922874    62198399
    10217987    62162910    61870751    61429945    60948564    60531285
    10267653    60221924    60011698    59890092    59846561    59865025
    10317319    59917740    59975480    60009023    59992867    59922508
    10366985    59800787    59630554    59415466    59173666    58935840
    10416651    58733089    58596415    58541512    58552323    58608844
    10466316    58691070    58779183    58854381    58898203    58892189
    10515982    58820423    58709166    58619384    58613071    58751698
    10565648    59034297    59339388    59531748    59476152    59081995
    10615314    58477593    57858308    57419513    57340696    57576354
    10664980    57914109    58137641    58032645    57542938    56881551
    10714646    56287737    56000752    56189186    56725832    57406097
    10764311    58025387    58393777    58487689    58388905    58180879
    10813977    57946503    57741514    57582903    57484690    57460893
    10863643    57513315    57602617    57680814    57699919    57618976
    10913309    57457617    57266419    57096207    56996653    56983495
    10962975    57033860    57122781    57225297    57320644    57398829
    11012641    57451562    57470557    57450558    57405312    57355911
    11062306    57323462    57327930    57368874    57428243    57487404
    11111972    57527897    57549434    57585804    57674545    57853196
    11161638    58142168    58487227    58813804    59047332    59121570
    11211304    59061828    58950075    58869121    58900344    59067843
    11260970    59320357    59601493    59854868    60032769    60112486
    11310636    60075786    59904436    59591984    59211696    58869872
    11360301    58672920    58720772    58992996    59362791    59699692
    11409967    59873939    59826445    59628387    59364973    59121411
    11459633    58968489    58918097    58967097    59112349    59347738
    11509299    59638408    59933408    60181612    60332998    60370553
    11558965    60315099    60189541    60016792    59822403    59638180
    11608631    59496836    59431085    59468929    59613721    59860778
    11658296    60205412    60638945    61102607    61503463    61747920
    11707962    61744655    61500206    61154100    60855365    60752958
    11757628    60939507    61350745    61895302    62481808    63027841
    11807294    63505093    63905502    64221039    64444635    64583160
    11856960    64654015    64674858    64663502    64645809    64659478
    11906626    64743154    64935457    65241026    65563856    65789392
    11956291    65803079    65519392    65035292    64518476    64136794
    12005957    64046633    64235194    64560657    64877950    65043653
    12055623    64997757    64801309    64524862    64238951    63994884
    12105289    63789257    63608994    63441021    63276317    63129640
    12154955    63024391    62983983    63029417    63150104    63313261
    12204620    63485643    63634860    63762141    63912646    64134499
    12254286    64475691    64935954    65395516    65716424    65760726
    12303952    65432312    64841332    64161375    63566049    63216207
    12353618    63141170    63292704    63621573    64077967    64596866
    12403284    65096897    65495877    65712110    65724991    65633886
    12452950    65552126    65593040    65832051    66202675    66605229
    12502615    66940035    67123078    67185994    67212191    67285322
    12552281    67484270    67810837    68204426    68602648    68943453
    12601947    69181443    69295041    69264504    69070149    68720347
    12651613    68295972    67889456    67593230    67476937    67499381
    12701279    67585723    67661118    67658789    67588635    67502936
    12750945    67454420    67493547    67622208    67795609    67967067
    12800610    68090302    68147886    68170198    68192111    68248478
    12850276    68355541    68474859    68558004    68556548    68435228
    12899942    68229644    67999138    67803066    67695028    67669422
    12949608    67685846    67703453    67683560    67636540    67621421
    12999274    67699315    67930535    68316957    68763293    69165079
    13048940    69417911    69473283    69442467    69465100    69680819
    13098605    70177515    70780960    71234130    71279966    70702528
    13148271    69666149    68540874    67698767    67493688    67936849
    13197937    68734372    69581720    70177812    70395075    70357023
    13247603    70206808    70087418    70093712    70205625    70386300
    13297269    70598880    70805963    70967937    71044625    70995850
    13346935    70796187    70523839    70301431    70251757    70487523
    13396600    70991536    71656398    72372890    73034686    73614714
    13446266    74172896    74773602    75479965    76252500    76873813
    13495932    77108771    76722420    75622892    74118048    72585015
    13545598    71400921    70863077    70900882    71337793    71997259
    13595264    72716637    73440641    74163955    74881541    75586791
    13644930    76251594    76832229    77284628    77565661    77658494
    13694595    77575453    77330381    76937388    76431085    75880802
    13744261    75359226    74938972    74655364    74445794    74231773
    13793927    73934809    73515200    73094638    72836788    72905318
    13843593    73422924    74239865    75095228    75727772    75901918
    13893259    75664683    75238202    74847223    74707749    74862263
    13942925    75193754    75579284    75897205    76080858    76137890
    13992590    76081213    75923729    75676839    75348947    74948103
    14042256    74482364    73974941    73494505    73118214    72923229
    14091922    72960028    73157176    73408430    73607547    73664011
    14141588    73597479    73474716    73362664    73321623    73338283
    14191254    73353496    73307425    73143522    72866998    72537947
    14240920    72218375    71968783    71795245    71635435    71422675
    14290585    71090988    70637014    70168845    69806060    69668055
    14340251    69796434    70034828    70195836    70092060    69608002
    14389917    68893292    68158654    67614815    67430668    67550816
    14439583    67845001    68182917    68448429    68636947    68796648
    14489249    68976027    69219596    69524546    69857035    70182676
    14538915    70468632    70711431    70933886    71159740    71411345
    14588580    71664538    71838794    71850204    71616041    71136594
    14638246    70548179    69999717    69639708    69527536    69524175
    14687912    69463818    69180701    68587982    67839586    67135193
    14737578    66674481    66590354    66734908    66886435    66823228
    14787244    66373240    65652036    64878466    64271515    64020583
    14836910    64077336    64278929    64461785    64472369    64271377
    14886575    63892022    63368676    62738597    62087176    61539551
    14936241    61222047    61256299    61642756    62252838    62951703
    14985907    63605836    64139773    64557392    64868292    65082124
    15035573    65213077    65283302    65315751    65333324    65346366
    15085239    65336928    65283187    65163338    64974595    64769502
    15134905    64610611    64560471    64649892    64790179    64864517
    15184570    64756096    64390647    63900688    63481465    63328239
    15234236    63592428    64150793    64773958    65232321    65327570
    15283902    65115093    64773406    64481837    64404567    64545281
    15333568    64811080    65107742    65345749    65501743    65601210
    15383234    65670779    65735606    65792713    65813853    65769882
    15432900    65634047    65443674    65305663    65330407    65625781
    15482565    66200546    66933986    67696654    68360030    68852797
    15532231    69193259    69407548    69521794    69562297    69555669
    15581897    69528557    69507561    69509099    69526759    69551026
    15631563    69572411    69598460    69682330    69884733    70266364
    15681229    70843946    71493733    72063994    72402996    72411336
    15730894    72188507    71881254    71636318    71579943    71746094
    15780560    72142786    72778031    73633081    74547232    75312890
    15830226    75722432    75612089    75091286    74374469    73676306
    15879892    73190996    72963371    72972035    73195296    73604344
    15929558    74109584    74590607    74926766    75012779    74896887
    15979224    74715601    74606488    74694633    74959319    75285433
    16028889    75556271    75665355    75645933    75632434    75761541
    16078555    76160987    76815166    77593122    78360631    78989410
    16128221    79462731    79863048    80276271    80784345    81381790
    16177887    81977727    82477719    82790767    82915031    82943852
    16227553    82975212    83103854    83325546    83521180    83565209
    16277219    83334888    82808605    82091712    81297622    80538156
    16326884    79857480    79208321    78536929    77790301    76953143
    16376550    76064744    75168664    74308265    73515248    72803313
    16426216    72184625    71670964    71247406    70855328    70432068
    16475882    69915371    69276326    68543598    67751557    66934706
    16525548    66139821    65435926    64894392    64585831    64497129
    16575214    64456682    64275241    63764557    62862633    61755750
    16624879    60659147    59787310    59247102    58926684    58687687
    16674545    58392107    57960211    57433971    56870609    56327228
    16724211    55840345    55402523    55000671    54621767    54265159
    16773877    53957044    53727135    53604975    53586121    53591572
    16823543    53532433    53320072    52919020    52411062    51893636
    16873209    51464020    51187179    51056827    51057170    51172323
    16922874    51369004    51575798    51716235    51714059    51533672
    16972540    51227569    50859770    50494194    50176874    49915744
    17022206    49713845    49574170    49491541    49443767    49406528
    17071872    49355560    49274536    49163209    49023274    48856494
    17121538    48672847    48498417    48361160    48288713    48274106
    17171204    48245111    48122268    47826907    47354961    46837019
    17220869    46417805    46240695    46340358    46564582    46742725
    17270535    46705886    46405269    45987715    45618051    45459101
    17320201    45556252    45774535    45963658    45975273    45757675
    17369867    45398420    44995891    44647337    44402150    44245335
    17419533    44157363    44118593    44105408    44089222    44041135
    17469199    43933355    43771764    43601168    43468540    43419099
    17518864    43452822    43521560    43574834    43564135    43484198
    17568530    43371865    43265726    43202724    43189068    43203708
    17618196    43224648    43230692    43213411    43174635    43116480
    17667862    43041840    42964169    42904566    42884298    42920688
    17717528    42984937    43018381    42961852    42766503    42486793
    17767194    42236676    42130816    42263251    42551171    42821843
    17816859    42901824    42649894    42161304    41636652    41277014
    17866525    41245601    41467963    41777671    42008096    42026551
    17916191    41882104    41684406    41543148    41540927    41636956
    17965857    41755335    41820165    41779031    41670061    41553209
    18015523    41488418    41513366    41593381    41679124    41721290
    18065189    41693359    41631028    41580519    41587936    41670843
    18114854    41781378    41862552    41857677    41745575    41573349
    18164520    41395852    41267567    41218254    41237837    41312631
    18214186    41428397    41547591    41601252    41518200    41230565
    18263852    40765354    40256237    39842558    39657841    39716868
    18313518    39923536    40177492    40382746    40508828    40575803
    18363184    40605044    40615562    40599676    40532823    40390176
    18412849    40153811    39865662    39598394    39424920    39407600
    18462515    39537866    39777935    40089936    40427691    40701544
    18512181    40807660    40642200    40153209    39500386    38897393
    18561847    38557859    38610175    38912670    39270302    39488272
    18611513    39454596    39261420    39031785    38888228    38894761
    18661179    39002739    39150717    39277552    39338907    39315780
    18710844    39191269    38950061    38627167    38317061    38117642
    18760510    38121495    38314737    38585173    38816915    38902914
    18810176    38855274    38771572    38751252    38880316    39117484
    18859842    39351292    39469547    39381094    39138360    38853728
    18909508    38639785    38584232    38650838    38764860    38851545
    18959174    38853824    38779061    38649295    38486563    38312194
    19008839    38145624    38005976    37912291    37872942    37875293
    19058505    37904249    37944971    37995689    38073779    38198142
    19108171    38386217    38615824    38821514    38935644    38895266
    19157837    38713605    38465718    38228450    38072376    38002284
    19207503    37983652    37981432    37964057    37924679    37867134
    19257168    37795303    37716571    37655519    37641992    37705839
    19306834    37860712    38065045    38265506    38408807    38454597
    19356500    38393374    38220133    37930364    37557349    37198171
    19406166    36956060    36931394    37130150    37444509    37759872
    19455832    37966212    38034979    38007769    37928470    37838480
    19505498    37752420    37668596    37585081    37500228    37414321
    19555163    37328457    37243735    37162400    37091926    37041281
    19604829    37019429    37031932    37073987    37138827    37219689
    19654495    37310408    37406045    37501809    37592722    37664897
    19704161    37691952    37646567    37503727    37288450    37074138
    19753827    36936177    36942880    37077363    37266316    37435424
    19803493    37518196    37505470    37413574    37258951    37065637
    19853158    36892886    36810157    36886873    37146354    37475128
    19902824    37734472    37786391    37579488    37229552    36871443
    19952490    36637792    36577409    36631850    36735658    36825127
    20002156    36867197    36854926    36782210    36648033    36500646
    20051822    36415948    36470142    36714245    37053403    37340382
    20101488    37427881    37222201    36820530    36362524    35987604
    20151153    35787039    35745194    35832052    36017202    36251358
    20200819    36458453    36560388    36483771    36248272    35958847
    20250485    35723601    35640457    35702984    35843531    35993667
    20300151    36095145    36149637    36180651    36211727    36254595
    20349817    36279693    36248437    36122439    35895563    35629867
    20399483    35396082    35263581    35247579    35292081    35336241
    20449148    35323413    35266900    35237743    35308713    35538432
    20498814    35863727    36159282    36299281    36192143    35912748
    20548480    35586503    35338768    35247169    35255022    35282188
    20598146    35249122    35120517    34935210    34739116    34577636
    20647812    34483880    34478394    34581155    34806640    35108570
    20697478    35402919    35605096    35646716    35554968    35391939
    20747143    35219768    35081566    34957748    34815833    34623651
    20796809    34383361    34162049    34034023    34071208    34277681
    20846475    34581482    34906628    35179630    35357294    35416587
    20896141    35334846    35103100    34797377    34526270    34398428
    20945807    34481651    34706165    34973273    35184702    35288517
    20995473    35319926    35323765    35343742    35393223    35452566
    21045138    35500464    35515779    35479280    35372935    35178733
    21094804    34889239    34556882    34255128    34057446    34008114
    21144470    34063834    34164952    34252159    34290631    34285937
    21194136    34247421    34184716    34113318    34054210    34028591
    21243802    34055537    34135204    34257802    34413450    34587571
    21293468    34744480    34842565    34840340    34730113    34583480
    21343133    34483397    34510469    34656339    34798500    34806960
    21392799    34565592    34143530    33741971    33564948    33771150
    21442465    34237930    34734904    35031506    34976141    34663467
    21492131    34236003    33835657    33561774    33444138    33506112
    21541797    33766652    34162131    34555557    34807388    34800336
    21591463    34593165    34328301    34148681    34154298    34280672
    21641128    34423954    34480809    34408851    34283492    34193595
    21690794    34224133    34366700    34517278    34567512    34424619
    21740460    34139829    33842288    33661904    33690803    33858065
    21790126    34048801    34148443    34096380    33946056    33765407
    21839792    33621127    33546112    33536308    33585788    33685675
    21889458    33798127    33868854    33843378    33686873    33452043
    21939123    33215948    33055486    33018734    33092313    33254950
    21988789    33484480    33734935    33934606    34010499    33900672
    22038455    33647668    33351552    33112988    33009271    33019305
    22088121    33096101    33192736    33270864    33309164    33288322
    22137787    33190538    33032300    32864099    32737885    32699997
    22187453    32750475    32866548    33025282    33200908    33357297
    22237118    33455956    33458791    33359174    33204219    33046299
    22286784    32935890    32890831    32901455    32957233    33044400
    22336450    33127833    33163748    33108363    32946176    32743895
    22386116    32583082    32543917    32646468    32828747    33022864
    22435782    33165377    33246427    33291658    33327347    33374939
    22485448    33432317    33490189    33539207    33560275    33513329
    22535113    33355589    33047660    32630201    32225147    31958063
    22584779    31933987    32094465    32302900    32422217    32362788
    22634445    32192916    32013723    31925199    31966102    32083881
    22684111    32218534    32312549    32340826    32300953    32190984
    22733777    32015712    31813612    31633663    31524670    31505508
    22783443    31531485    31549787    31509924    31412139    31305941
    22833108    31242871    31266463    31362302    31490476    31610973
    22882774    31697970    31767335    31842561    31946594    32081477
    22932440    32222287    32342319    32416503    32436462    32403580
    22982106    32319361    32194201    32073426    32010947    32059952
    23031772    32222140    32414288    32545232    32530709    32383345
    23081437    32187236    32028143    31972504    31989618    32018326
    23131103    31997659    31895479    31738214    31559391    31391924
    23180769    31257192    31166324    31130092    31156498    31236510
    23230435    31354626    31495340    31644337    31790181    31921861
    23280101    32028545    32103818    32145793    32152787    32123343
    23329767    32057598    31956390    31820570    31659285    31504328
    23379432    31391325    31354822    31397822    31487493    31589062
    23429098    31670146    31717486    31727020    31694746    31621834
    23478764    31524789    31422948    31335557    31278976    31266079
    23528430    31309530    31417416    31558939    31683677    31741066
    23578096    31696087    31561530    31359346    31112219    30868042
    23627762    30705704    30705995    30931526    31289569    31608615
    23677427    31716588    31517228    31145049    30778307    30591644
    23727093    30641068    30840096    31093808    31313529    31461529
    23776759    31524931    31491046    31370180    31238757    31185016
    23826425    31293732    31550105    31827215    31992161    31934130
    23876091    31705742    31432944    31241932    31212890    31306528
    23925757    31464413    31628971    31762925    31849544    31873018
    23975422    31819443    31687151    31479293    31199130    30871455
    24025088    30569428    30372804    30356193    30500224    30703365
    24074754    30861315    30894206    30851484    30825219    30906839
    24124420    31117681    31348255    31474750    31384053    31109017
    24174086    30788075    30562010    30534785    30656081    30835177
    24223752    30982192    31053114    31072455    31070332    31074166
    24273417    31084673    31087296    31067302    31021638    30984298
    24323083    30996611    31097979    31269776    31426478    31478857
    24372749    31356681    31123500    30900318    30808125    30907813
    24422415    31121014    31349686    31498744    31525188    31430593
    24472081    31217975    30903344    30566020    30304573    30216537
    24521747    30325826    30535234    30736270    30830064    30820843
    24571412    30775411    30761449    30824029    30934731    31050227
    24621078    31128210    31156217    31155677    31149854    31159362
    24670744    31187291    31229610    31282217    31332217    31348178
    24720410    31296313    31147771    30945479    30786600    30769634
    24770076    30954279    31243061    31498719    31586351    31470786
    24819742    31251173    31036134    30921165    30897746    30907854
    24869407    30893260    30825942    30750726    30723202    30795305
    24919073    30956724    31145036    31296213    31358378    31333579
    24968739    31238815    31091677    30938259    30865327    30962760
    25018405    31299437    31770491    32185305    32352933    32175789
    25068071    31784335    31343207    31010482    30834469    30772564
    25117737    30779423    30813943    30853120    30878784    30873040
    25167402    30829678    30758238    30669374    30576560    30514424
    25217068    30527201    30658951    30909888    31184144    31373120
    25266734    31377046    31218736    31010684    30867435    30869602
    25316400    30975153    31114364    31218590    31250993    31210968
    25366066    31099877    30925091    30729809    30570461    30503057
    25415732    30546292    30653487    30771361    30850243    30876562
    25465397    30857514    30800560    30723340    30671010    30693332
    25515063    30835252    31055864    31240333    31271408    31073153
    25564729    30743135    30424452    30257513    30285160    30427444
    25614395    30596592    30715106    30771944    30782513    30762272
    25664061    30724881    30680737    30639889    30612095    30604205
    25713727    30621382    30668752    30743942    30824846    30886155
    25763392    30903955    30877055    30822761    30758914    30699598
    25813058    30644616    30590382    30533504    30476035    30426113
    25862724    30392199    30380807    30387903    30405900    30427411
    25912390    30456688    30515561    30627321    30806596    31001473
    25962056    31129205    31107312    30914780    30654986    30446327
    26011722    30396497    30496135    30663718    30816691    30890485
    26061387    30868934    30743937    30511388    30230386    30010515
    26111053    29962764    30150132    30465168    30762597    30901768
    26160719    30850931    30688646    30498378    30352989    30276354
    26210385    30278220    30367490    30522371    30682324    30784329
    26260051    30778900    30696462    30596674    30538672    30547552
    26309717    30595667    30650836    30683004    30677978    30628723
    26359382    30528439    30391178    30270110    30222708    30297183
    26409048    30455468    30612567    30683212    30624158    30486250
    26458714    30333115    30224392    30173782    30165560    30183525
    26508380    30213401    30245989    30272920    30287547    30307545
    26558046    30368569    30506677    30730856    30967472    31127190
    26607711    31125796    30966318    30724796    30479519    30292519
    26657377    30169342    30103274    30088392    30134868    30267846
    26707043    30513042    30866032    31205348    31381114    31251297
    26756709    30859696    30439002    30230362    30394445    30749404
    26806375    31022283    30949116    30509210    29947334    29521695
    26856041    29429760    29591270    29846628    30039863    30124233
    26905706    30178752    30289393    30512774    30764151    30916280
    26955372    30845845    30557070    30206451    29959414    29943720
    27005038    30099853    30310204    30459195    30500325    30471139
    27054704    30414260    30364909    30321065    30269020    30196032
    27104370    30122244    30107874    30215565    30481271    30807759
    27154036    31056341    31092123    30904891    30633979    30427558
    27203701    30396862    30473933    30536556    30465908    30247156
    27253367    29986142    29795468    29764728    29877138    30085194
    27303033    30340705    30576481    30704374    30635152    30323656
    27352699    29915080    29606010    29584708    29836924    30139537
    27402365    30259830    30047008    29674496    29395913    29452990
    27452031    29838706    30310308    30615761    30583845    30330695
    27501696    30036294    29872678    29871732    29945398    30001758
    27551362    29975635    29885707    29767044    29655440    29597250
    27601028    29646848    29858722    30231451    30611605    30820162
    27650694    30698372    30331252    29965000    29848137    30088814
    27700360    30469417    30726236    30626479    30239117    29803523
    27750026    29559919    29615619    29818395    29986000    29959452
    27799691    29762349    29504464    29295505    29205862    29242197
    27849357    29405347    29683398    29984784    30187251    30171147
    27899023    29925860    29585574    29294470    29171303    29209902
    27948689    29365793    29594338    29846845    30070275    30211378
    27998355    30226791    30110805    29866666    29501284    29085740
    28048021    28745773    28608810    28737863    29008937    29264293
    28097686    29358227    29290482    29157324    29056577    29052008
    28147352    29132621    29277496    29462588    29637299    29737631
    28197018    29700330    29522497    29300760    29141042    29123263
    28246684    29170672    29148132    28924761    28519649    28136170
    28296350    27989008    28225974    28710014    29228234    29575023
    28346016    29685377    29621452    29449980    29231203    29006070
    28395681    28811955    28682892    28613430    28572358    28528145
    28445347    28468678    28422052    28421352    28493605    28620009
    28495013    28760795    28876482    28947228    28981529    28990089
    28544679    28983772    28974245    28973426    28992755    29032803
    28594345    29083273    29133398    29170302    29174326    29124448
    28644011    29004129    28852928    28748569    28769205    28943966
    28693676    29199226    29448425    29613519    29679507    29659671
    28743342    29567915    29439742    29340350    29337096    29469237
    28793008    29648875    29752157    29663209    29418725    29192493
    28842674    29163058    29420502    29810227    30135684    30217988
    28892340    30054390    29743317    29384165    29057589    28812202
    28942006    28693473    28734406    28897437    29120210    29340371
    28991671    29496331    29527324    29372633    29024118    28645828
    29041337    28437007    28575541    28985092    29422463    29642679
    29091003    29531735    29226468    28892052    28671267    28566274
    29140669    28524770    28495594    28464784    28460811    28514455
    29190335    28642566    28813903    28986852    29122114    29208935
    29240001    29255794    29271496    29261101    29222471    29152644
    29289666    29052831    28949923    28880582    28880279    28951181
    29339332    29058844    29166948    29241465    29255779    29184771
    29388998    29009399    28777851    28580119    28506071    28582945
    29438664    28729269    28852716    28880206    28841632    28801183
    29488330    28819893    28891387    28944894    28907126    28740368
    29537996    28502923    28269138    28106102    28017800    27975736
    29587661    27951204    27918412    27855673    27741609    27569205
    29637327    27390820    27274149    27281225    27392920    27529404
    29686993    27609653    27591792    27513315    27421328    27355533
    29736659    27310285    27262767    27191050    27095959    27001921
    29786325    26934450    26909750    26917479    26942589    26970542
    29835991    26991311    26997233    26980706    26935953    26859730
    29885656    26748980    26609923    26485019    26425577    26476712
    29935322    26604825    26722132    26740339    26622870    26426113
    29984988    26216162    26050602    25943184    25893577    25901275
    30034654    25962757    26071886    26222381    26395068    26541659
    30084320    26609872    26559529    26429729    26291481    26213454
    30133985    26203384    26205126    26159560    26039786    25907336
    30183651    25838777    25897092    26036113    26157107    26163086
    30233317    26028090    25813078    25584307    25405913    25335219
    30282983    25428177    25726204    26132845    26475528    26583679
    30332649    26411300    26084023    25739992    25488298    25332595
    30382315    25252622    25229435    25258225    25342776    25486418
    30431980    25661086    25791746    25799517    25635730    25370379
    30481646    25102592    24925549    24863403    24895820    25001652
    30531312    25154934    25322171    25469207    25564190    25584638
    30580978    25510460    25326989    25084308    24875105    24791888
    30630644    24868560    25046521    25259012    25442768    25548687
    30680310    25531259    25353048    25070820    24802308    24664760
    30729975    24687439    24764688    24779414    24656702    24485021
    30779641    24392387    24493194    24753873    25050131    25257484
    30829307    25306779    25208294    24978456    24653195    24337626
    30878973    24152196    24200709    24426437    24682865    24825112
    30928639    24809841    24725350    24668694    24700917    24770716
    30978305    24804938    24743239    24630447    24562982    24633804
    31027970    24825331    24995096    24994060    24741319    24335960
    31077636    23906448    23567990    23346494    23231022    23210161
    31127302    23265030    23369643    23497718    23619588    23698273
    31176968    23695839    23588719    23429908    23297807    23264791
    31226634    23312722    23353734    23298890    23116910    22875262
    31276300    22651107    22516246    22520661    22708778    23110422
    31325965    23601231    23964317    23985972    23630486    23096637
    31375631    22599163    22292392    22149687    22110673    22121873
    31425297    22180588    22306791    22518381    22784769    23027745
    31474963    23167320    23163552    23062408    22920962    22791676
    31524629    22703719    22678927    22735386    22841772    22931892
    31574295    22939829    22855383    22752165    22710699    22779634
    31623960    22900360    22991727    22982883    22886148    22754080
    31673626    22637753    22545839    22443347    22293475    22095869
    31723292    21930006    21885939    22026934    22282327    22539688
    31772958    22692051    22701038    22574937    22323860    22001591
    31822624    21723488    21609511    21722225    21950023    22148388
    31872290    22195373    22126440    22044084    22045238    22117761
    31921955    22152538    22038031    21755175    21453375    21299920
    31971621    21406966    21668284    21923588    22027929    21976922
    32021287    21841659    21692884    21572509    21491068    21457456
    32070953    21468491    21494189    21500965    21464283    21403264
    32120619    21350163    21333876    21345410    21351878    21320585
    32170285    21238975    21119692    20976982    20829102    20704481
    32219950    20633138    20638486    20707837    20816227    20938730
    32269616    21051024    21129204    21150034    21118471    21077577
    32319282    21073080    21126619    21194492    21222021    21165292
    32368948    21042419    20893696    20758352    20660985    20615746
    32418614    20635866    20703791    20759771    20741060    20621237
    32468280    20472244    20382511    20419481    20532071    20627631
    32517945    20620530    20515320    20378805    20278146    20245813
    32567611    20268988    20331782    20409039    20452219    20409149
    32617277    20245730    20020854    19823239    19734869    19762352
    32666943    19865086    20001661    20128064    20197238    20162137
    32716609    20011480    19812698    19643700    19564543    19557308
    32766275    19582799    19606042    19630350    19679400    19775049
    32815940    19894404    19970610    19935562    19777176    19584402
    32865606    19456776    19461762    19555987    19672156    19749703
    32915272    19774388    19751483    19686436    19586314    19459445
    32964938    19314308    19164819    19032476    18939308    18893729
    33014604    18869217    18833728    18764594    18685454    18634221
    33064270    18645200    18716772    18826722    18952349    19065239
    33113935    19131146    19115796    19006552    18829894    18616419
    33163601    18403692    18252486    18228399    18376217    18608523
    33213267    18786156    18781973    18626924    18462667    18429786
    33262933    18556162    18732699    18842345    18820680    18715494
    33312599    18588980    18492605    18436046    18418801    18437420
    33362265    18466832    18472351    18421813    18321797    18208866
    33411930    18119889    18072780    18060495    18074289    18106699
    33461596    18153175    18209572    18270285    18323753    18356894
    33511262    18359064    18337986    18309752    18289140    18270390
    33560928    18231799    18151886    18033889    17913078    17826782
    33610594    17797772    17816929    17870910    17944745    18017224
    33660259    18065637    18072534    18056680    18052090    18088480
    33709925    18138095    18132535    18005121    17767651    17522853
    33759591    17378002    17379715    17458883    17533395    17545484
    33809257    17516187    17482459    17474945    17488745    17506522
    33858923    17512738    17510313    17512939    17533922    17575742
    33908589    17630676    17690647    17749934    17806376    17858093
    33958254    17898013    17906253    17860989    17749195    17594355
    34007920    17429429    17285485    17180140    17125186    17132075
    34057586    17208190    17358080    17584334    17837808    18012757
    34107252    18001580    17779792    17465930    17192596    17047763
    34156918    16995996    16980711    16958440    16945491    16975198
    34206584    17071088    17181750    17221206    17111279    16882503
    34256249    16643890    16503453    16492796    16558806    16644203
    34305915    16710278    16749980    16759350    16738000    16695066
    34355581    16641258    16589930    16565758    16596448    16701620
    34405247    16844664    16965106    17006283    16957594    16838485
    34454913    16669765    16491132    16360821    16336678    16415836
    34504579    16506223    16508919    16382617    16214180    16107751
    34554244    16133889    16247514    16378675    16467448    16508050
    34603910    16512887    16494256    16463372    16430899    16407273
    34653576    16399657    16412732    16450253    16491875    16490535
    34703242    16398553    16220328    16044643    15967843    16042782
    34752908    16218023    16426819    16605104    16698499    16654822
    34802574    16444506    16162625    15946947    15915849    16021879
    34852239    16133556    16127819    16007556    15867834    15802607
    34901905    15825742    15867596    15855670    15773853    15689608
    34951571    15676939    15772308    15932466    16103980    16237877
    35001237    16298974    16254738    16090772    15875159    15699421
    35050903    15640396    15675980    15743209    15783424    15783336
    35100569    15756257    15715293    15664648    15601245    15522206
    35150234    15436513    15366551    15335012    15339191    15336745
    35199900    15282087    15166287    15060026    15044406    15168167
    35249566    15381025    15613829    15800065    15884696    15815808
    35299232    15563551    15235123    14990274    14968833    15130179
    35348898    15338096    15463166    15479790    15437063    15384756
    35398564    15351711    15346544    15376461    15426258    15451768
    35448229    15407302    15280424    15116252    14965594    14867726
    35497895    14835006    14875953    14986318    15121261    15227890
    35547561    15264871    15241247    15179787    15103171    15033569
    35597227    14992962    14999430    15038730    15080626    15096189
    35646893    15073192    15010286    14907927    14794675    14722913
    35696559    14743141    14833829    14894480    14822672    14615628
    35746224    14411549    14358365    14510439    14751018    14945256
    35795890    15006599    14963240    14860046    14741433    14650431
    35845556    14629801    14704266    14824915    14924051    14946068
    35895222    14900140    14817045    14727510    14661787    14649925
    35944888    14715730    14824312    14908598    14906058    14816403
    35994554    14682322    14547333    14454404    14446036    14561707
    36044219    14762292    14924420    14923172    14739544    14495171
    36093885    14320455    14278756    14323200    14396757    14458682
    36143551    14501424    14521479    14516017    14483912    14424308
    36193217    14343135    14267804    14229967    14249359    14298576
    36242883    14338561    14339179    14314336    14291490    14291021
    36292549    14289738    14247891    14133077    13969616    13808152
    36342214    13697529    13667733    13738167    13921553    14149691
    36391880    14299853    14257827    14061570    13871246    13843089
    36441546    13977626    14127111    14142318    14000717    13822265
    36491212    13732509    13775933    13889652    14003861    14077329
    36540878    14113314    14118906    14099525    14057543    13995048
    36590544    13921911    13864701    13852110    13895996    13965794
    36640209    14024362    14041862    14010058    13924691    13793494
    36689875    13665827    13600081    13632022    13705444    13740773
    36739541    13681994    13584873    13538297    13608919    13740592
    36789207    13835013    13811963    13707502    13603631    13571851
    36838873    13604550    13658395    13693297    13698790    13679598
    36888539    13640956    13591959    13543938    13507116    13478343
    36938204    13445774    13398685    13343724    13300164    13286149
    36987870    13297063    13309906    13302680    13282438    13282229
    37037536    13334078    13426297    13504039    13512472    13446345
    37087202    13354238    13286756    13272912    13316026    13417051
    37136868    13542970    13616643    13559622    13371519    13162360
    37186534    13049279    13075899    13172960    13262082    13299044
    37236199    13296398    13271977    13236425    13187487    13121652
    37285865    13045704    12986288    12972152    13007310    13044564
    37335531    13030553    12949619    12869570    12869229    12978636
    37385197    13112704    13169859    13093406    12939193    12780405
    37434863    12677271    12655620    12735590    12903355    13049873
    37484528    13049598    12842306    12560387    12371523    12385525
    37534194    12533379    12711641    12840054    12913149    12940515
    37583860    12933178    12907008    12878884    12860722    12847180
    37633526    12829165    12801251    12771175    12749622    12744841
    37683192    12756096    12780574    12813338    12841413    12849924
    37732858    12829329    12790620    12749729    12717195    12682450
    37782523    12629764    12552108    12476879    12439994    12464061
    37832189    12518623    12559996    12554932    12511946    12450000
##END=
