399.24985,0.00000
400.21422,0.00235
401.17859,0.00645
402.14296,0.00772
403.10734,0.00593
404.07171,0.00418
405.03608,0.00356
406.00045,0.00252
406.96482,0.00069
407.92919,-0.00020
408.89357,0.00065
409.85794,0.00180
410.82231,0.00202
411.78668,0.00194
412.75105,0.00239
413.71542,0.00321
414.67980,0.00446
415.64417,0.00730
416.60854,0.01227
417.57291,0.01789
418.53728,0.02183
419.50165,0.02283
420.46602,0.02115
421.43040,0.01781
422.39477,0.01429
423.35914,0.01191
424.32351,0.01083
425.28788,0.01012
426.25225,0.00901
427.21663,0.00767
428.18100,0.00653
429.14537,0.00553
430.10974,0.00460
431.07411,0.00410
432.03848,0.00435
433.00286,0.00511
433.96723,0.00604
434.93160,0.00703
435.89597,0.00785
436.86034,0.00799
437.82471,0.00728
438.78909,0.00620
439.75346,0.00535
440.71783,0.00485
441.68220,0.00458
442.64657,0.00454
443.61094,0.00460
444.57532,0.00432
445.53969,0.00347
446.50406,0.00242
447.46843,0.00170
448.43280,0.00153
449.39717,0.00191
450.36155,0.00289
451.32592,0.00424
452.29029,0.00529
453.25466,0.00543
454.21903,0.00460
455.18340,0.00314
456.14777,0.00143
457.11215,0.00000
458.07652,-0.00047
459.04089,0.00040
460.00526,0.00228
460.96963,0.00454
461.93400,0.00668
462.89838,0.00836
463.86275,0.00924
464.82712,0.00925
465.79149,0.00889
466.75586,0.00889
467.72023,0.00972
468.68461,0.01149
469.64898,0.01399
470.61335,0.01662
471.57772,0.01849
472.54209,0.01896
473.50646,0.01804
474.47084,0.01628
475.43521,0.01431
476.39958,0.01280
477.36395,0.01228
478.32832,0.01285
479.29269,0.01404
480.25707,0.01524
481.22144,0.01609
482.18581,0.01654
483.15018,0.01662
484.11455,0.01650
485.07892,0.01638
486.04329,0.01633
487.00767,0.01617
487.97204,0.01583
488.93641,0.01562
489.90078,0.01597
490.86515,0.01698
491.82952,0.01843
492.79390,0.01997
493.75827,0.02117
494.72264,0.02172
495.68701,0.02160
496.65138,0.02115
497.61575,0.02072
498.58013,0.02046
499.54450,0.02053
500.50887,0.02113
501.47324,0.02235
502.43761,0.02393
503.40198,0.02552
504.36636,0.02693
505.33073,0.02812
506.29510,0.02905
507.25947,0.02975
508.22384,0.03038
509.18821,0.03109
510.15259,0.03187
511.11696,0.03264
512.08133,0.03338
513.04570,0.03412
514.01007,0.03476
514.97444,0.03529
515.93881,0.03575
516.90319,0.03615
517.86756,0.03642
518.83193,0.03652
519.79630,0.03663
520.76067,0.03685
521.72504,0.03714
522.68942,0.03743
523.65379,0.03777
524.61816,0.03818
525.58253,0.03851
526.54690,0.03861
527.51127,0.03856
528.47565,0.03865
529.44002,0.03912
530.40439,0.04010
531.36876,0.04148
532.33313,0.04297
533.29750,0.04413
534.26188,0.04478
535.22625,0.04508
536.19062,0.04538
537.15499,0.04587
538.11936,0.04656
539.08373,0.04733
540.04811,0.04795
541.01248,0.04813
541.97685,0.04781
542.94122,0.04720
543.90559,0.04659
544.86996,0.04610
545.83434,0.04569
546.79871,0.04533
547.76308,0.04496
548.72745,0.04451
549.69182,0.04400
550.65619,0.04361
551.62056,0.04354
552.58494,0.04378
553.54931,0.04423
554.51368,0.04473
555.47805,0.04514
556.44242,0.04531
557.40679,0.04522
558.37117,0.04496
559.33554,0.04459
560.29991,0.04402
561.26428,0.04324
562.22865,0.04242
563.19302,0.04180
564.15740,0.04147
565.12177,0.04138
566.08614,0.04147
567.05051,0.04168
568.01488,0.04186
568.97925,0.04187
569.94363,0.04168
570.90800,0.04133
571.87237,0.04091
572.83674,0.04060
573.80111,0.04066
574.76548,0.04119
575.72986,0.04198
576.69423,0.04271
577.65860,0.04311
578.62297,0.04300
579.58734,0.04231
580.55171,0.04114
581.51608,0.03980
582.48046,0.03861
583.44483,0.03771
584.40920,0.03705
585.37357,0.03647
586.33794,0.03573
587.30231,0.03464
588.26669,0.03328
589.23106,0.03200
590.19543,0.03127
591.15980,0.03128
592.12417,0.03194
593.08854,0.03295
594.05292,0.03390
595.01729,0.03444
595.98166,0.03446
596.94603,0.03407
597.91040,0.03348
598.87477,0.03280
599.83915,0.03207
600.80352,0.03137
601.76789,0.03078
602.73226,0.03036
603.69663,0.03011
604.66100,0.03003
605.62538,0.02996
606.58975,0.02960
607.55412,0.02873
608.51849,0.02747
609.48286,0.02618
610.44723,0.02526
611.41161,0.02495
612.37598,0.02528
613.34035,0.02609
614.30472,0.02708
615.26909,0.02798
616.23346,0.02866
617.19783,0.02908
618.16221,0.02924
619.12658,0.02926
620.09095,0.02938
621.05532,0.02982
622.01969,0.03061
622.98406,0.03169
623.94844,0.03298
624.91281,0.03433
625.87718,0.03559
626.84155,0.03672
627.80592,0.03782
628.77029,0.03902
629.73467,0.04024
630.69904,0.04130
631.66341,0.04206
632.62778,0.04248
633.59215,0.04259
634.55652,0.04254
635.52090,0.04250
636.48527,0.04254
637.44964,0.04261
638.41401,0.04266
639.37838,0.04274
640.34275,0.04290
641.30713,0.04308
642.27150,0.04313
643.23587,0.04299
644.20024,0.04269
645.16461,0.04226
646.12898,0.04183
647.09335,0.04156
648.05773,0.04150
649.02210,0.04150
649.98647,0.04142
650.95084,0.04126
651.91521,0.04115
652.87958,0.04116
653.84396,0.04126
654.80833,0.04146
655.77270,0.04173
656.73707,0.04203
657.70144,0.04234
658.66581,0.04271
659.63019,0.04313
660.59456,0.04346
661.55893,0.04358
662.52330,0.04343
663.48767,0.04292
664.45204,0.04170
665.41642,0.03946
666.38079,0.03644
667.34516,0.03362
668.30953,0.03216
669.27390,0.03251
670.23827,0.03413
671.20265,0.03601
672.16702,0.03742
673.13139,0.03827
674.09576,0.03888
675.06013,0.03940
676.02450,0.03971
676.98887,0.03959
677.95325,0.03900
678.91762,0.03808
679.88199,0.03706
680.84636,0.03618
681.81073,0.03564
682.77510,0.03547
683.73948,0.03555
684.70385,0.03572
685.66822,0.03592
686.63259,0.03613
687.59696,0.03636
688.56133,0.03660
689.52571,0.03685
690.49008,0.03710
691.45445,0.03729
692.41882,0.03749
693.38319,0.03780
694.34756,0.03837
695.31194,0.03918
696.27631,0.04013
697.24068,0.04104
698.20505,0.04175
699.16942,0.04210
700.13379,0.04204
701.09817,0.04162
702.06254,0.04095
703.02691,0.04006
703.99128,0.03898
704.95565,0.03777
705.92002,0.03646
706.88440,0.03507
707.84877,0.03363
708.81314,0.03226
709.77751,0.03108
710.74188,0.03012
711.70625,0.02938
712.67062,0.02881
713.63500,0.02836
714.59937,0.02793
715.56374,0.02744
716.52811,0.02687
717.49248,0.02626
718.45685,0.02564
719.42123,0.02510
720.38560,0.02471
721.34997,0.02445
722.31434,0.02422
723.27871,0.02386
724.24308,0.02332
725.20746,0.02255
726.17183,0.02153
727.13620,0.02029
728.10057,0.01893
729.06494,0.01758
730.02931,0.01630
730.99369,0.01516
731.95806,0.01419
732.92243,0.01340
733.88680,0.01272
734.85117,0.01213
735.81554,0.01174
736.77992,0.01169
737.74429,0.01201
738.70866,0.01255
739.67303,0.01307
740.63740,0.01329
741.60177,0.01309
742.56614,0.01255
743.53052,0.01191
744.49489,0.01136
745.45926,0.01090
746.42363,0.01045
747.38800,0.00994
748.35237,0.00938
749.31675,0.00883
750.28112,0.00832
751.24549,0.00786
752.20986,0.00742
753.17423,0.00691
754.13860,0.00629
755.10298,0.00560
756.06735,0.00490
757.03172,0.00421
757.99609,0.00358
758.96046,0.00316
759.92483,0.00303
760.88921,0.00316
761.85358,0.00344
762.81795,0.00372
763.78232,0.00391
764.74669,0.00393
765.71106,0.00374
766.67544,0.00337
767.63981,0.00289
768.60418,0.00239
769.56855,0.00198
770.53292,0.00174
771.49729,0.00169
772.46167,0.00178
773.42604,0.00204
774.39041,0.00262
775.35478,0.00362
776.31915,0.00495
777.28352,0.00635
778.24789,0.00751
779.21227,0.00819
780.17664,0.00829
781.14101,0.00791
782.10538,0.00733
783.06975,0.00683
784.03412,0.00658
784.99850,0.00651
785.96287,0.00641
786.92724,0.00609
787.89161,0.00547
788.85598,0.00469
789.82035,0.00407
790.78473,0.00384
791.74910,0.00402
792.71347,0.00441
793.67784,0.00485
794.64221,0.00523
795.60658,0.00554
796.57096,0.00583
797.53533,0.00610
798.49970,0.00631
799.46407,0.00634
800.42844,0.00616
801.39281,0.00581
802.35719,0.00543
803.32156,0.00513
804.28593,0.00503
805.25030,0.00520
806.21467,0.00566
807.17904,0.00633
808.14341,0.00707
809.10779,0.00774
810.07216,0.00824
811.03653,0.00848
812.00090,0.00840
812.96527,0.00800
813.92964,0.00737
814.89402,0.00659
815.85839,0.00577
816.82276,0.00508
817.78713,0.00462
818.75150,0.00438
819.71587,0.00428
820.68025,0.00424
821.64462,0.00422
822.60899,0.00421
823.57336,0.00420
824.53773,0.00423
825.50210,0.00427
826.46648,0.00423
827.43085,0.00400
828.39522,0.00362
829.35959,0.00316
830.32396,0.00272
831.28833,0.00235
832.25271,0.00204
833.21708,0.00172
834.18145,0.00130
835.14582,0.00077
836.11019,0.00029
837.07456,-0.00000
838.03893,-0.00006
839.00331,-0.00000
839.96768,0.00007
840.93205,0.00009
841.89642,0.00006
842.86079,-0.00000
843.82516,0.00002
844.78954,0.00021
845.75391,0.00062
846.71828,0.00120
847.68265,0.00188
848.64702,0.00257
849.61139,0.00318
850.57577,0.00366
851.54014,0.00402
852.50451,0.00436
853.46888,0.00473
854.43325,0.00520
855.39762,0.00581
856.36200,0.00659
857.32637,0.00750
858.29074,0.00839
859.25511,0.00906
860.21948,0.00938
861.18385,0.00933
862.14823,0.00910
863.11260,0.00897
864.07697,0.00911
865.04134,0.00943
866.00571,0.00965
866.97008,0.00948
867.93446,0.00884
868.89883,0.00787
869.86320,0.00693
870.82757,0.00633
871.79194,0.00624
872.75631,0.00655
873.72068,0.00701
874.68506,0.00745
875.64943,0.00774
876.61380,0.00786
877.57817,0.00784
878.54254,0.00772
879.50691,0.00756
880.47129,0.00738
881.43566,0.00722
882.40003,0.00710
883.36440,0.00701
884.32877,0.00690
885.29314,0.00664
886.25752,0.00618
887.22189,0.00548
888.18626,0.00463
889.15063,0.00376
890.11500,0.00301
891.07937,0.00245
892.04375,0.00204
893.00812,0.00172
893.97249,0.00146
894.93686,0.00123
895.90123,0.00100
896.86560,0.00076
897.82998,0.00052
898.79435,0.00029
899.75872,0.00011
900.72309,-0.00000
901.68746,-0.00003
902.65183,-0.00000
903.61620,0.00011
904.58058,0.00040
905.54495,0.00093
906.50932,0.00167
907.47369,0.00251
908.43806,0.00342
909.40243,0.00449
910.36681,0.00577
911.33118,0.00717
912.29555,0.00847
913.25992,0.00953
914.22429,0.01026
915.18866,0.01066
916.15304,0.01076
917.11741,0.01071
918.08178,0.01059
919.04615,0.01041
920.01052,0.01013
920.97489,0.00970
921.93927,0.00910
922.90364,0.00830
923.86801,0.00737
924.83238,0.00643
925.79675,0.00562
926.76112,0.00501
927.72550,0.00460
928.68987,0.00434
929.65424,0.00417
930.61861,0.00399
931.58298,0.00370
932.54735,0.00330
933.51173,0.00287
934.47610,0.00247
935.44047,0.00215
936.40484,0.00195
937.36921,0.00183
938.33358,0.00166
939.29795,0.00135
940.26233,0.00092
941.22670,0.00050
942.19107,0.00018
943.15544,-0.00000
944.11981,-0.00005
945.08418,-0.00000
946.04856,0.00012
947.01293,0.00029
947.97730,0.00054
948.94167,0.00087
949.90604,0.00123
950.87041,0.00162
951.83479,0.00209
952.79916,0.00274
953.76353,0.00369
954.72790,0.00502
955.69227,0.00674
956.65664,0.00873
957.62102,0.01080
958.58539,0.01276
959.54976,0.01457
960.51413,0.01625
961.47850,0.01784
962.44287,0.01931
963.40725,0.02059
964.37162,0.02159
965.33599,0.02224
966.30036,0.02255
967.26473,0.02265
968.22910,0.02265
969.19347,0.02256
970.15785,0.02232
971.12222,0.02181
972.08659,0.02099
973.05096,0.01987
974.01533,0.01855
974.97970,0.01717
975.94408,0.01585
976.90845,0.01463
977.87282,0.01353
978.83719,0.01260
979.80156,0.01184
980.76593,0.01122
981.73031,0.01068
982.69468,0.01021
983.65905,0.00982
984.62342,0.00954
985.58779,0.00946
986.55216,0.00968
987.51654,0.01024
988.48091,0.01111
989.44528,0.01216
990.40965,0.01324
991.37402,0.01419
992.33839,0.01492
993.30277,0.01543
994.26714,0.01580
995.23151,0.01612
996.19588,0.01642
997.16025,0.01668
998.12462,0.01686
999.08899,0.01692
1000.05337,0.01683
1001.01774,0.01663
1001.98211,0.01645
1002.94648,0.01644
1003.91085,0.01670
1004.87522,0.01719
1005.83960,0.01784
1006.80397,0.01854
1007.76834,0.01926
1008.73271,0.02003
1009.69708,0.02094
1010.66145,0.02200
1011.62583,0.02314
1012.59020,0.02427
1013.55457,0.02541
1014.51894,0.02668
1015.48331,0.02821
1016.44768,0.03004
1017.41206,0.03209
1018.37643,0.03415
1019.34080,0.03602
1020.30517,0.03757
1021.26954,0.03890
1022.23391,0.04022
1023.19829,0.04174
1024.16266,0.04361
1025.12703,0.04583
1026.09140,0.04828
1027.05577,0.05074
1028.02014,0.05304
1028.98452,0.05516
1029.94889,0.05715
1030.91326,0.05907
1031.87763,0.06092
1032.84200,0.06272
1033.80637,0.06449
1034.77074,0.06631
1035.73512,0.06824
1036.69949,0.07031
1037.66386,0.07248
1038.62823,0.07462
1039.59260,0.07669
1040.55697,0.07873
1041.52135,0.08085
1042.48572,0.08317
1043.45009,0.08566
1044.41446,0.08824
1045.37883,0.09075
1046.34320,0.09304
1047.30758,0.09513
1048.27195,0.09722
1049.23632,0.09959
1050.20069,0.10243
1051.16506,0.10575
1052.12943,0.10938
1053.09381,0.11306
1054.05818,0.11653
1055.02255,0.11968
1055.98692,0.12257
1056.95129,0.12531
1057.91566,0.12793
1058.88004,0.13039
1059.84441,0.13259
1060.80878,0.13447
1061.77315,0.13603
1062.73752,0.13734
1063.70189,0.13855
1064.66626,0.13980
1065.63064,0.14116
1066.59501,0.14265
1067.55938,0.14427
1068.52375,0.14600
1069.48812,0.14782
1070.45249,0.14969
1071.41687,0.15159
1072.38124,0.15351
1073.34561,0.15544
1074.30998,0.15737
1075.27435,0.15937
1076.23872,0.16150
1077.20310,0.16379
1078.16747,0.16624
1079.13184,0.16886
1080.09621,0.17161
1081.06058,0.17439
1082.02495,0.17708
1082.98933,0.17960
1083.95370,0.18190
1084.91807,0.18387
1085.88244,0.18543
1086.84681,0.18647
1087.81118,0.18694
1088.77556,0.18683
1089.73993,0.18620
1090.70430,0.18517
1091.66867,0.18388
1092.63304,0.18245
1093.59741,0.18103
1094.56179,0.17979
1095.52616,0.17896
1096.49053,0.17870
1097.45490,0.17899
1098.41927,0.17963
1099.38364,0.18019
1100.34801,0.18022
1101.31239,0.17947
1102.27676,0.17805
1103.24113,0.17628
1104.20550,0.17447
1105.16987,0.17267
1106.13424,0.17076
1107.09862,0.16858
1108.06299,0.16613
1109.02736,0.16364
1109.99173,0.16145
1110.95610,0.15972
1111.92047,0.15831
1112.88485,0.15683
1113.84922,0.15490
1114.81359,0.15233
1115.77796,0.14916
1116.74233,0.14567
1117.70670,0.14214
1118.67108,0.13875
1119.63545,0.13546
1120.59982,0.13210
1121.56419,0.12856
1122.52856,0.12483
1123.49293,0.12099
1124.45731,0.11715
1125.42168,0.11342
1126.38605,0.10981
1127.35042,0.10625
1128.31479,0.10269
1129.27916,0.09910
1130.24353,0.09552
1131.20791,0.09203
1132.17228,0.08866
1133.13665,0.08541
1134.10102,0.08222
1135.06539,0.07899
1136.02976,0.07572
1136.99414,0.07259
1137.95851,0.06983
1138.92288,0.06755
1139.88725,0.06568
1140.85162,0.06398
1141.81599,0.06221
1142.78037,0.06032
1143.74474,0.05844
1144.70911,0.05684
1145.67348,0.05572
1146.63785,0.05508
1147.60222,0.05479
1148.56660,0.05469
1149.53097,0.05464
1150.49534,0.05458
1151.45971,0.05450
1152.42408,0.05442
1153.38845,0.05437
1154.35283,0.05428
1155.31720,0.05410
1156.28157,0.05384
1157.24594,0.05357
1158.21031,0.05339
1159.17468,0.05342
1160.13905,0.05373
1161.10343,0.05429
1162.06780,0.05495
1163.03217,0.05561
1163.99654,0.05621
1164.96091,0.05676
1165.92528,0.05724
1166.88966,0.05754
1167.85403,0.05759
1168.81840,0.05735
1169.78277,0.05690
1170.74714,0.05641
1171.71151,0.05602
1172.67589,0.05573
1173.64026,0.05534
1174.60463,0.05461
1175.56900,0.05344
1176.53337,0.05195
1177.49774,0.05042
1178.46212,0.04916
1179.42649,0.04830
1180.39086,0.04775
1181.35523,0.04725
1182.31960,0.04662
1183.28397,0.04587
1184.24835,0.04519
1185.21272,0.04472
1186.17709,0.04451
1187.14146,0.04446
1188.10583,0.04445
1189.07020,0.04445
1190.03458,0.04455
1190.99895,0.04493
1191.96332,0.04569
1192.92769,0.04678
1193.89206,0.04803
1194.85643,0.04932
1195.82080,0.05062
1196.78518,0.05205
1197.74955,0.05374
1198.71392,0.05578
1199.67829,0.05815
1200.64266,0.06075
1201.60703,0.06347
1202.57141,0.06631
1203.53578,0.06931
1204.50015,0.07246
1205.46452,0.07575
1206.42889,0.07911
1207.39326,0.08246
1208.35764,0.08573
1209.32201,0.08896
1210.28638,0.09234
1211.25075,0.09605
1212.21512,0.10017
1213.17949,0.10458
1214.14387,0.10909
1215.10824,0.11352
1216.07261,0.11776
1217.03698,0.12187
1218.00135,0.12596
1218.96572,0.13014
1219.93010,0.13439
1220.89447,0.13857
1221.85884,0.14256
1222.82321,0.14624
1223.78758,0.14961
1224.75195,0.15277
1225.71632,0.15586
1226.68070,0.15898
1227.64507,0.16210
1228.60944,0.16514
1229.57381,0.16804
1230.53818,0.17083
1231.50255,0.17358
1232.46693,0.17633
1233.43130,0.17906
1234.39567,0.18165
1235.36004,0.18397
1236.32441,0.18593
1237.28878,0.18755
1238.25316,0.18895
1239.21753,0.19020
1240.18190,0.19132
1241.14627,0.19225
1242.11064,0.19290
1243.07501,0.19316
1244.03939,0.19300
1245.00376,0.19248
1245.96813,0.19168
1246.93250,0.19064
1247.89687,0.18937
1248.86124,0.18784
1249.82562,0.18606
1250.78999,0.18404
1251.75436,0.18187
1252.71873,0.17966
1253.68310,0.17749
1254.64747,0.17532
1255.61185,0.17303
1256.57622,0.17049
1257.54059,0.16766
1258.50496,0.16464
1259.46933,0.16157
1260.43370,0.15860
1261.39807,0.15576
1262.36245,0.15292
1263.32682,0.14997
1264.29119,0.14696
1265.25556,0.14410
1266.21993,0.14158
1267.18430,0.13947
1268.14868,0.13765
1269.11305,0.13586
1270.07742,0.13389
1271.04179,0.13171
1272.00616,0.12954
1272.97053,0.12764
1273.93491,0.12616
1274.89928,0.12501
1275.86365,0.12396
1276.82802,0.12285
1277.79239,0.12168
1278.75676,0.12061
1279.72114,0.11980
1280.68551,0.11926
1281.64988,0.11875
1282.61425,0.11799
1283.57862,0.11688
1284.54299,0.11559
1285.50737,0.11445
1286.47174,0.11372
1287.43611,0.11342
1288.40048,0.11332
1289.36485,0.11308
1290.32922,0.11253
1291.29359,0.11174
1292.25797,0.11098
1293.22234,0.11043
1294.18671,0.11013
1295.15108,0.10994
1296.11545,0.10965
1297.07982,0.10914
1298.04420,0.10844
1299.00857,0.10773
1299.97294,0.10720
1300.93731,0.10687
1301.90168,0.10659
1302.86605,0.10619
1303.83043,0.10556
1304.79480,0.10478
1305.75917,0.10406
1306.72354,0.10356
1307.68791,0.10328
1308.65228,0.10300
1309.61666,0.10250
1310.58103,0.10166
1311.54540,0.10060
1312.50977,0.09952
1313.47414,0.09860
1314.43851,0.09787
1315.40289,0.09721
1316.36726,0.09645
1317.33163,0.09547
1318.29600,0.09433
1319.26037,0.09319
1320.22474,0.09211
1321.18911,0.09110
1322.15349,0.09006
1323.11786,0.08890
1324.08223,0.08761
1325.04660,0.08631
1326.01097,0.08523
1326.97534,0.08453
1327.93972,0.08416
1328.90409,0.08391
1329.86846,0.08357
1330.83283,0.08304
1331.79720,0.08241
1332.76157,0.08185
1333.72595,0.08156
1334.69032,0.08157
1335.65469,0.08177
1336.61906,0.08198
1337.58343,0.08205
1338.54780,0.08191
1339.51218,0.08161
1340.47655,0.08123
1341.44092,0.08081
1342.40529,0.08029
1343.36966,0.07951
1344.33403,0.07845
1345.29841,0.07728
1346.26278,0.07631
1347.22715,0.07580
1348.19152,0.07574
1349.15589,0.07593
1350.12026,0.07608
1351.08464,0.07600
1352.04901,0.07576
1353.01338,0.07559
1353.97775,0.07568
1354.94212,0.07604
1355.90649,0.07651
1356.87086,0.07696
1357.83524,0.07739
1358.79961,0.07794
1359.76398,0.07885
1360.72835,0.08021
1361.69272,0.08191
1362.65709,0.08368
1363.62147,0.08531
1364.58584,0.08681
1365.55021,0.08838
1366.51458,0.09024
1367.47895,0.09244
1368.44332,0.09488
1369.40770,0.09733
1370.37207,0.09955
1371.33644,0.10150
1372.30081,0.10331
1373.26518,0.10520
1374.22955,0.10732
1375.19393,0.10968
1376.15830,0.11218
1377.12267,0.11470
1378.08704,0.11719
1379.05141,0.11975
1380.01578,0.12258
1380.98016,0.12583
1381.94453,0.12949
1382.90890,0.13335
1383.87327,0.13717
1384.83764,0.14077
1385.80201,0.14409
1386.76638,0.14722
1387.73076,0.15025
1388.69513,0.15318
1389.65950,0.15594
1390.62387,0.15841
1391.58824,0.16060
1392.55261,0.16264
1393.51699,0.16470
1394.48136,0.16688
1395.44573,0.16912
1396.41010,0.17118
1397.37447,0.17273
1398.33884,0.17355
1399.30322,0.17368
1400.26759,0.17336
1401.23196,0.17288
1402.19633,0.17231
1403.16070,0.17157
1404.12507,0.17042
1405.08945,0.16870
1406.05382,0.16650
1407.01819,0.16411
1407.98256,0.16183
1408.94693,0.15973
1409.91130,0.15767
1410.87568,0.15552
1411.84005,0.15324
1412.80442,0.15091
1413.76879,0.14874
1414.73316,0.14695
1415.69753,0.14558
1416.66191,0.14429
1417.62628,0.14257
1418.59065,0.14004
1419.55502,0.13680
1420.51939,0.13329
1421.48376,0.13004
1422.44813,0.12725
1423.41251,0.12480
1424.37688,0.12241
1425.34125,0.11998
1426.30562,0.11771
1427.26999,0.11593
1428.23436,0.11484
1429.19874,0.11444
1430.16311,0.11460
1431.12748,0.11514
1432.09185,0.11595
1433.05622,0.11708
1434.02059,0.11876
1434.98497,0.12113
1435.94934,0.12401
1436.91371,0.12692
1437.87808,0.12937
1438.84245,0.13122
1439.80682,0.13268
1440.77120,0.13413
1441.73557,0.13583
1442.69994,0.13785
1443.66431,0.14003
1444.62868,0.14217
1445.59305,0.14413
1446.55743,0.14585
1447.52180,0.14737
1448.48617,0.14876
1449.45054,0.15016
1450.41491,0.15162
1451.37928,0.15310
1452.34365,0.15445
1453.30803,0.15559
1454.27240,0.15649
1455.23677,0.15700
1456.20114,0.15679
1457.16551,0.15557
1458.12988,0.15335
1459.09426,0.15055
1460.05863,0.14776
1461.02300,0.14548
1461.98737,0.14391
1462.95174,0.14292
1463.91611,0.14220
1464.88049,0.14141
1465.84486,0.14035
1466.80923,0.13899
1467.77360,0.13746
1468.73797,0.13588
1469.70234,0.13410
1470.66672,0.13178
1471.63109,0.12857
1472.59546,0.12452
1473.55983,0.12008
1474.52420,0.11591
1475.48857,0.11245
1476.45295,0.10986
1477.41732,0.10800
1478.38169,0.10669
1479.34606,0.10586
1480.31043,0.10552
1481.27480,0.10580
1482.23917,0.10677
1483.20355,0.10840
1484.16792,0.11053
1485.13229,0.11300
1486.09666,0.11578
1487.06103,0.11896
1488.02540,0.12275
1488.98978,0.12729
1489.95415,0.13243
1490.91852,0.13777
1491.88289,0.14298
1492.84726,0.14799
1493.81163,0.15312
1494.77601,0.15880
1495.74038,0.16518
1496.70475,0.17205
1497.66912,0.17892
1498.63349,0.18537
1499.59786,0.19130
1500.56224,0.19696
1501.52661,0.20270
1502.49098,0.20883
1503.45535,0.21569
1504.41972,0.22371
1505.38409,0.23320
1506.34847,0.24387
1507.31284,0.25486
1508.27721,0.26525
1509.24158,0.27480
1510.20595,0.28395
1511.17032,0.29331
1512.13470,0.30314
1513.09907,0.31335
1514.06344,0.32382
1515.02781,0.33448
1515.99218,0.34505
1516.95655,0.35502
1517.92092,0.36386
1518.88530,0.37145
1519.84967,0.37820
1520.81404,0.38477
1521.77841,0.39170
1522.74278,0.39917
1523.70715,0.40708
1524.67153,0.41528
1525.63590,0.42365
1526.60027,0.43205
1527.56464,0.44033
1528.52901,0.44843
1529.49338,0.45648
1530.45776,0.46479
1531.42213,0.47349
1532.38650,0.48236
1533.35087,0.49093
1534.31524,0.49876
1535.27961,0.50579
1536.24399,0.51242
1537.20836,0.51920
1538.17273,0.52641
1539.13710,0.53372
1540.10147,0.54031
1541.06584,0.54541
1542.03022,0.54887
1542.99459,0.55106
1543.95896,0.55240
1544.92333,0.55291
1545.88770,0.55225
1546.85207,0.55022
1547.81644,0.54687
1548.78082,0.54231
1549.74519,0.53657
1550.70956,0.52968
1551.67393,0.52178
1552.63830,0.51302
1553.60267,0.50358
1554.56705,0.49385
1555.53142,0.48438
1556.49579,0.47514
1557.46016,0.46510
1558.42453,0.45309
1559.38890,0.43935
1560.35328,0.42574
1561.31765,0.41413
1562.28202,0.40487
1563.24639,0.39697
1564.21076,0.38948
1565.17513,0.38219
1566.13951,0.37516
1567.10388,0.36823
1568.06825,0.36123
1569.03262,0.35429
1569.99699,0.34777
1570.96136,0.34198
1571.92574,0.33700
1572.89011,0.33264
1573.85448,0.32835
1574.81885,0.32354
1575.78322,0.31808
1576.74759,0.31242
1577.71197,0.30715
1578.67634,0.30252
1579.64071,0.29834
1580.60508,0.29441
1581.56945,0.29062
1582.53382,0.28706
1583.49819,0.28383
1584.46257,0.28103
1585.42694,0.27867
1586.39131,0.27662
1587.35568,0.27483
1588.32005,0.27342
1589.28442,0.27255
1590.24880,0.27227
1591.21317,0.27248
1592.17754,0.27302
1593.14191,0.27379
1594.10628,0.27472
1595.07065,0.27585
1596.03503,0.27728
1596.99940,0.27910
1597.96377,0.28128
1598.92814,0.28376
1599.89251,0.28649
1600.85688,0.28937
1601.82126,0.29235
1602.78563,0.29546
1603.75000,0.29885
1604.71437,0.30265
1605.67874,0.30694
1606.64311,0.31177
1607.60749,0.31726
1608.57186,0.32344
1609.53623,0.33026
1610.50060,0.33768
1611.46497,0.34570
1612.42934,0.35437
1613.39371,0.36375
1614.35809,0.37410
1615.32246,0.38585
1616.28683,0.39920
1617.25120,0.41364
1618.21557,0.42827
1619.17994,0.44259
1620.14432,0.45704
1621.10869,0.47275
1622.07306,0.49072
1623.03743,0.51112
1624.00180,0.53333
1624.96617,0.55654
1625.93055,0.58036
1626.89492,0.60479
1627.85929,0.62987
1628.82366,0.65518
1629.78803,0.67997
1630.75240,0.70348
1631.71678,0.72547
1632.68115,0.74642
1633.64552,0.76720
1634.60989,0.78826
1635.57426,0.80904
1636.53863,0.82815
1637.50301,0.84450
1638.46738,0.85801
1639.43175,0.86938
1640.39612,0.87939
1641.36049,0.88851
1642.32486,0.89708
1643.28923,0.90557
1644.25361,0.91452
1645.21798,0.92427
1646.18235,0.93469
1647.14672,0.94506
1648.11109,0.95444
1649.07546,0.96236
1650.03984,0.96935
1651.00421,0.97645
1651.96858,0.98409
1652.93295,0.99150
1653.89732,0.99717
1654.86169,1.00000
1655.82607,0.99991
1656.79044,0.99759
1657.75481,0.99366
1658.71918,0.98807
1659.68355,0.98026
1660.64792,0.96972
1661.61230,0.95638
1662.57667,0.94075
1663.54104,0.92379
1664.50541,0.90674
1665.46978,0.89044
1666.43415,0.87469
1667.39853,0.85830
1668.36290,0.84020
1669.32727,0.82063
1670.29164,0.80109
1671.25601,0.78307
1672.22038,0.76694
1673.18476,0.75175
1674.14913,0.73616
1675.11350,0.71947
1676.07787,0.70213
1677.04224,0.68531
1678.00661,0.66984
1678.97098,0.65579
1679.93536,0.64267
1680.89973,0.62983
1681.86410,0.61636
1682.82847,0.60109
1683.79284,0.58352
1684.75721,0.56471
1685.72159,0.54675
1686.68596,0.53095
1687.65033,0.51678
1688.61470,0.50272
1689.57907,0.48789
1690.54344,0.47271
1691.50782,0.45811
1692.47219,0.44437
1693.43656,0.43075
1694.40093,0.41618
1695.36530,0.40035
1696.32967,0.38415
1697.29405,0.36874
1698.25842,0.35425
1699.22279,0.33961
1700.18716,0.32402
1701.15153,0.30814
1702.11590,0.29354
1703.08028,0.28111
1704.04465,0.27041
1705.00902,0.26048
1705.97339,0.25080
1706.93776,0.24139
1707.90213,0.23246
1708.86650,0.22412
1709.83088,0.21644
1710.79525,0.20941
1711.75962,0.20297
1712.72399,0.19705
1713.68836,0.19142
1714.65273,0.18568
1715.61711,0.17927
1716.58148,0.17191
1717.54585,0.16391
1718.51022,0.15595
1719.47459,0.14869
1720.43896,0.14236
1721.40334,0.13680
1722.36771,0.13168
1723.33208,0.12676
1724.29645,0.12205
1725.26082,0.11768
1726.22519,0.11378
1727.18957,0.11031
1728.15394,0.10717
1729.11831,0.10436
1730.08268,0.10203
1731.04705,0.10029
1732.01142,0.09902
1732.97580,0.09784
1733.94017,0.09633
1734.90454,0.09436
1735.86891,0.09220
1736.83328,0.09021
1737.79765,0.08859
1738.76203,0.08726
1739.72640,0.08598
1740.69077,0.08454
1741.65514,0.08277
1742.61951,0.08056
1743.58388,0.07798
1744.54825,0.07526
1745.51263,0.07260
1746.47700,0.07012
1747.44137,0.06774
1748.40574,0.06522
1749.37011,0.06229
1750.33448,0.05887
1751.29886,0.05523
1752.26323,0.05180
1753.22760,0.04888
1754.19197,0.04641
1755.15634,0.04413
1756.12071,0.04183
1757.08509,0.03956
1758.04946,0.03747
1759.01383,0.03573
1759.97820,0.03432
1760.94257,0.03306
1761.90694,0.03171
1762.87132,0.03020
1763.83569,0.02863
1764.80006,0.02723
1765.76443,0.02619
1766.72880,0.02558
1767.69317,0.02533
1768.65755,0.02526
1769.62192,0.02519
1770.58629,0.02498
1771.55066,0.02454
1772.51503,0.02386
1773.47940,0.02294
1774.44377,0.02184
1775.40815,0.02070
1776.37252,0.01963
1777.33689,0.01870
1778.30126,0.01799
1779.26563,0.01752
1780.23000,0.01727
1781.19438,0.01708
1782.15875,0.01677
1783.12312,0.01628
1784.08749,0.01569
1785.05186,0.01518
1786.01623,0.01490
1786.98061,0.01488
1787.94498,0.01504
1788.90935,0.01521
1789.87372,0.01520
1790.83809,0.01493
1791.80246,0.01445
1792.76684,0.01390
1793.73121,0.01337
1794.69558,0.01292
1795.65995,0.01250
1796.62432,0.01209
1797.58869,0.01175
1798.55307,0.01152
1799.51744,0.01142
1800.48181,0.01132
1801.44618,0.01109
1802.41055,0.01069
1803.37492,0.01017
1804.33929,0.00967
1805.30367,0.00927
1806.26804,0.00901
1807.23241,0.00882
1808.19678,0.00859
1809.16115,0.00823
1810.12552,0.00777
1811.08990,0.00732
1812.05427,0.00701
1813.01864,0.00689
1813.98301,0.00692
1814.94738,0.00697
1815.91175,0.00684
1816.87613,0.00642
1817.84050,0.00575
1818.80487,0.00500
1819.76924,0.00442
1820.73361,0.00416
1821.69798,0.00423
1822.66236,0.00456
1823.62673,0.00497
1824.59110,0.00531
1825.55547,0.00547
1826.51984,0.00545
1827.48421,0.00530
1828.44859,0.00506
1829.41296,0.00480
1830.37733,0.00450
1831.34170,0.00414
1832.30607,0.00378
1833.27044,0.00349
1834.23482,0.00336
1835.19919,0.00333
1836.16356,0.00330
1837.12793,0.00318
1838.09230,0.00297
1839.05667,0.00281
1840.02104,0.00285
1840.98542,0.00319
1841.94979,0.00381
1842.91416,0.00449
1843.87853,0.00495
1844.84290,0.00501
1845.80727,0.00469
1846.77165,0.00417
1847.73602,0.00361
1848.70039,0.00311
1849.66476,0.00270
1850.62913,0.00240
1851.59350,0.00224
1852.55788,0.00225
1853.52225,0.00241
1854.48662,0.00262
1855.45099,0.00276
1856.41536,0.00272
1857.37973,0.00246
1858.34411,0.00204
1859.30848,0.00158
1860.27285,0.00122
1861.23722,0.00105
1862.20159,0.00105
1863.16596,0.00116
1864.13034,0.00133
1865.09471,0.00152
1866.05908,0.00174
1867.02345,0.00198
1867.98782,0.00218
1868.95219,0.00224
1869.91656,0.00209
1870.88094,0.00178
1871.84531,0.00142
1872.80968,0.00114
1873.77405,0.00102
1874.73842,0.00106
1875.70279,0.00117
1876.66717,0.00124
1877.63154,0.00117
1878.59591,0.00094
1879.56028,0.00059
1880.52465,0.00027
1881.48902,0.00010
1882.45340,0.00016
1883.41777,0.00046
1884.38214,0.00088
1885.34651,0.00134
1886.31088,0.00177
1887.27525,0.00210
1888.23963,0.00228
1889.20400,0.00223
1890.16837,0.00193
1891.13274,0.00144
1892.09711,0.00091
1893.06148,0.00047
1894.02586,0.00019
1894.99023,0.00004
1895.95460,-0.00000
1896.91897,0.00003
1897.88334,0.00013
1898.84771,0.00031
1899.81209,0.00052
1900.77646,0.00074
1901.74083,0.00093
1902.70520,0.00106
1903.66957,0.00112
1904.63394,0.00107
1905.59831,0.00092
1906.56269,0.00068
1907.52706,0.00041
1908.49143,0.00017
1909.45580,0.00000
1910.42017,-0.00005
1911.38454,0.00006
1912.34892,0.00034
1913.31329,0.00070
1914.27766,0.00106
1915.24203,0.00135
1916.20640,0.00157
1917.17077,0.00175
1918.13515,0.00191
1919.09952,0.00206
1920.06389,0.00218
1921.02826,0.00221
1921.99263,0.00212
1922.95700,0.00187
1923.92138,0.00146
1924.88575,0.00097
1925.85012,0.00052
1926.81449,0.00024
1927.77886,0.00020
1928.74323,0.00037
1929.70761,0.00064
1930.67198,0.00086
1931.63635,0.00095
1932.60072,0.00090
1933.56509,0.00077
1934.52946,0.00064
1935.49383,0.00057
1936.45821,0.00058
1937.42258,0.00063
1938.38695,0.00071
1939.35132,0.00079
1940.31569,0.00085
1941.28006,0.00090
1942.24444,0.00097
1943.20881,0.00107
1944.17318,0.00122
1945.13755,0.00138
1946.10192,0.00150
1947.06629,0.00154
1948.03067,0.00151
1948.99504,0.00142
1949.95941,0.00133
1950.92378,0.00126
1951.88815,0.00121
1952.85252,0.00113
1953.81690,0.00101
1954.78127,0.00089
1955.74564,0.00082
1956.71001,0.00088
1957.67438,0.00105
1958.63875,0.00121
1959.60313,0.00123
1960.56750,0.00104
1961.53187,0.00071
1962.49624,0.00039
1963.46061,0.00024
1964.42498,0.00031
1965.38935,0.00051
1966.35373,0.00069
1967.31810,0.00077
1968.28247,0.00078
1969.24684,0.00084
1970.21121,0.00102
1971.17558,0.00127
1972.13996,0.00141
1973.10433,0.00135
1974.06870,0.00113
1975.03307,0.00091
1975.99744,0.00083
1976.96181,0.00083
1977.92619,0.00078
1978.89056,0.00056
1979.85493,0.00024
1980.81930,-0.00000
1981.78367,0.00001
1982.74804,0.00029
1983.71242,0.00069
1984.67679,0.00100
1985.64116,0.00108
1986.60553,0.00096
1987.56990,0.00079
1988.53427,0.00069
1989.49865,0.00068
1990.46302,0.00070
1991.42739,0.00066
1992.39176,0.00057
1993.35613,0.00049
1994.32050,0.00048
1995.28488,0.00061
1996.24925,0.00085
1997.21362,0.00115
1998.17799,0.00141
1999.14236,0.00161
2000.10673,0.00175
2001.07110,0.00189
2002.03548,0.00208
2002.99985,0.00230
2003.96422,0.00248
2004.92859,0.00254
2005.89296,0.00247
2006.85733,0.00234
2007.82171,0.00224
2008.78608,0.00221
2009.75045,0.00221
2010.71482,0.00215
2011.67919,0.00199
2012.64356,0.00173
2013.60794,0.00146
2014.57231,0.00129
2015.53668,0.00130
2016.50105,0.00148
2017.46542,0.00175
2018.42979,0.00199
2019.39417,0.00217
2020.35854,0.00233
2021.32291,0.00253
2022.28728,0.00271
2023.25165,0.00278
2024.21602,0.00268
2025.18040,0.00246
2026.14477,0.00224
2027.10914,0.00212
2028.07351,0.00213
2029.03788,0.00221
2030.00225,0.00229
2030.96662,0.00238
2031.93100,0.00247
2032.89537,0.00253
2033.85974,0.00252
2034.82411,0.00241
2035.78848,0.00225
2036.75285,0.00221
2037.71723,0.00239
2038.68160,0.00279
2039.64597,0.00326
2040.61034,0.00361
2041.57471,0.00375
2042.53908,0.00374
2043.50346,0.00369
2044.46783,0.00368
2045.43220,0.00368
2046.39657,0.00363
2047.36094,0.00350
2048.32531,0.00332
2049.28969,0.00317
2050.25406,0.00312
2051.21843,0.00314
2052.18280,0.00321
2053.14717,0.00329
2054.11154,0.00338
2055.07592,0.00347
2056.04029,0.00355
2057.00466,0.00353
2057.96903,0.00337
2058.93340,0.00311
2059.89777,0.00287
2060.86215,0.00277
2061.82652,0.00287
2062.79089,0.00313
2063.75526,0.00344
2064.71963,0.00371
2065.68400,0.00385
2066.64837,0.00385
2067.61275,0.00373
2068.57712,0.00356
2069.54149,0.00339
2070.50586,0.00326
2071.47023,0.00313
2072.43460,0.00291
2073.39898,0.00258
2074.36335,0.00218
2075.32772,0.00188
2076.29209,0.00180
2077.25646,0.00199
2078.22083,0.00240
2079.18521,0.00289
2080.14958,0.00334
2081.11395,0.00369
2082.07832,0.00391
2083.04269,0.00401
2084.00706,0.00402
2084.97144,0.00396
2085.93581,0.00385
2086.90018,0.00372
2087.86455,0.00360
2088.82892,0.00349
2089.79329,0.00341
2090.75767,0.00340
2091.72204,0.00351
2092.68641,0.00375
2093.65078,0.00404
2094.61515,0.00423
2095.57952,0.00422
2096.54389,0.00403
2097.50827,0.00379
2098.47264,0.00363
2099.43701,0.00360
2100.40138,0.00365
2101.36575,0.00367
2102.33012,0.00361
2103.29450,0.00354
2104.25887,0.00354
2105.22324,0.00366
2106.18761,0.00385
2107.15198,0.00399
2108.11635,0.00399
2109.08073,0.00389
2110.04510,0.00378
2111.00947,0.00377
2111.97384,0.00390
2112.93821,0.00404
2113.90258,0.00406
2114.86696,0.00391
2115.83133,0.00368
2116.79570,0.00351
2117.76007,0.00349
2118.72444,0.00359
2119.68881,0.00369
2120.65319,0.00371
2121.61756,0.00370
2122.58193,0.00374
2123.54630,0.00391
2124.51067,0.00418
2125.47504,0.00445
2126.43941,0.00463
2127.40379,0.00466
2128.36816,0.00453
2129.33253,0.00426
2130.29690,0.00388
2131.26127,0.00345
2132.22564,0.00303
2133.19002,0.00267
2134.15439,0.00240
2135.11876,0.00221
2136.08313,0.00212
2137.04750,0.00218
2138.01187,0.00243
2138.97625,0.00283
2139.94062,0.00323
2140.90499,0.00342
2141.86936,0.00333
2142.83373,0.00304
2143.79810,0.00277
2144.76248,0.00268
2145.72685,0.00280
2146.69122,0.00297
2147.65559,0.00309
2148.61996,0.00312
2149.58433,0.00314
2150.54871,0.00326
2151.51308,0.00349
2152.47745,0.00376
2153.44182,0.00399
2154.40619,0.00411
2155.37056,0.00414
2156.33494,0.00408
2157.29931,0.00401
2158.26368,0.00397
2159.22805,0.00396
2160.19242,0.00393
2161.15679,0.00383
2162.12116,0.00366
2163.08554,0.00348
2164.04991,0.00340
2165.01428,0.00346
2165.97865,0.00359
2166.94302,0.00366
2167.90739,0.00358
2168.87177,0.00334
2169.83614,0.00301
2170.80051,0.00268
2171.76488,0.00239
2172.72925,0.00215
2173.69362,0.00199
2174.65800,0.00188
2175.62237,0.00188
2176.58674,0.00202
2177.55111,0.00228
2178.51548,0.00259
2179.47985,0.00275
2180.44423,0.00260
2181.40860,0.00215
2182.37297,0.00154
2183.33734,0.00104
2184.30171,0.00082
2185.26608,0.00089
2186.23046,0.00113
2187.19483,0.00141
2188.15920,0.00165
2189.12357,0.00181
2190.08794,0.00189
2191.05231,0.00192
2192.01668,0.00196
2192.98106,0.00213
2193.94543,0.00246
2194.90980,0.00290
2195.87417,0.00330
2196.83854,0.00355
2197.80291,0.00362
2198.76729,0.00359
2199.73166,0.00352
2200.69603,0.00344
2201.66040,0.00331
2202.62477,0.00309
2203.58914,0.00279
2204.55352,0.00245
2205.51789,0.00212
2206.48226,0.00180
2207.44663,0.00155
2208.41100,0.00143
2209.37537,0.00152
2210.33975,0.00186
2211.30412,0.00238
2212.26849,0.00291
2213.23286,0.00326
2214.19723,0.00331
2215.16160,0.00306
2216.12598,0.00265
2217.09035,0.00226
2218.05472,0.00207
2219.01909,0.00213
2219.98346,0.00237
2220.94783,0.00264
2221.91221,0.00278
2222.87658,0.00273
2223.84095,0.00257
2224.80532,0.00245
2225.76969,0.00251
2226.73406,0.00275
2227.69843,0.00310
2228.66281,0.00344
2229.62718,0.00366
2230.59155,0.00374
2231.55592,0.00369
2232.52029,0.00356
2233.48466,0.00336
2234.44904,0.00314
2235.41341,0.00293
2236.37778,0.00276
2237.34215,0.00265
2238.30652,0.00263
2239.27089,0.00268
2240.23527,0.00277
2241.19964,0.00280
2242.16401,0.00266
2243.12838,0.00230
2244.09275,0.00177
2245.05712,0.00120
2246.02150,0.00074
2246.98587,0.00052
2247.95024,0.00053
2248.91461,0.00073
2249.87898,0.00102
2250.84335,0.00134
2251.80773,0.00161
2252.77210,0.00181
2253.73647,0.00198
2254.70084,0.00219
2255.66521,0.00248
2256.62958,0.00285
2257.59395,0.00329
2258.55833,0.00372
2259.52270,0.00407
2260.48707,0.00428
2261.45144,0.00433
2262.41581,0.00423
2263.38018,0.00397
2264.34456,0.00360
2265.30893,0.00314
2266.27330,0.00266
2267.23767,0.00225
2268.20204,0.00200
2269.16641,0.00196
2270.13079,0.00213
2271.09516,0.00242
2272.05953,0.00270
2273.02390,0.00288
2273.98827,0.00288
2274.95264,0.00270
2275.91702,0.00236
2276.88139,0.00197
2277.84576,0.00167
2278.81013,0.00157
2279.77450,0.00174
2280.73887,0.00220
2281.70325,0.00284
2282.66762,0.00344
2283.63199,0.00379
2284.59636,0.00378
2285.56073,0.00346
2286.52510,0.00297
2287.48947,0.00247
2288.45385,0.00208
2289.41822,0.00179
2290.38259,0.00153
2291.34696,0.00123
2292.31133,0.00092
2293.27570,0.00069
2294.24008,0.00057
2295.20445,0.00055
2296.16882,0.00062
2297.13319,0.00074
2298.09756,0.00091
2299.06193,0.00115
2300.02631,0.00154
2300.99068,0.00209
2301.95505,0.00265
2302.91942,0.00299
2303.88379,0.00295
2304.84816,0.00252
2305.81254,0.00186
2306.77691,0.00118
2307.74128,0.00071
2308.70565,0.00048
2309.67002,0.00034
2310.63439,0.00014
2311.59877,-0.00005
2312.56314,-0.00000
2313.52751,0.00030
2314.49188,0.00061
2315.45625,0.00070
2316.42062,0.00064
2317.38500,0.00061
2318.34937,0.00067
2319.31374,0.00072
2320.27811,0.00071
2321.24248,0.00070
2322.20685,0.00074
2323.17122,0.00077
2324.13560,0.00078
2325.09997,0.00078
2326.06434,0.00081
2327.02871,0.00084
2327.99308,0.00085
2328.95745,0.00085
2329.92183,0.00088
2330.88620,0.00091
2331.85057,0.00092
2332.81494,0.00093
2333.77931,0.00095
2334.74368,0.00098
2335.70806,0.00099
2336.67243,0.00100
2337.63680,0.00102
2338.60117,0.00105
2339.56554,0.00106
2340.52991,0.00107
2341.49429,0.00110
2342.45866,0.00112
2343.42303,0.00113
2344.38740,0.00115
2345.35177,0.00117
2346.31614,0.00119
2347.28052,0.00121
2348.24489,0.00123
2349.20926,0.00125
2350.17363,0.00127
2351.13800,0.00129
2352.10237,0.00130
2353.06674,0.00132
2354.03112,0.00135
2354.99549,0.00136
2355.95986,0.00138
2356.92423,0.00140
2357.88860,0.00142
2358.85297,0.00144
2359.81735,0.00146
2360.78172,0.00148
2361.74609,0.00150
2362.71046,0.00152
2363.67483,0.00154
2364.63920,0.00156
2365.60358,0.00158
2366.56795,0.00160
2367.53232,0.00162
2368.49669,0.00164
2369.46106,0.00166
2370.42543,0.00168
2371.38981,0.00171
2372.35418,0.00172
2373.31855,0.00174
2374.28292,0.00176
2375.24729,0.00179
2376.21166,0.00181
2377.17604,0.00181
2378.14041,0.00185
2379.10478,0.00189
2380.06915,0.00189
2381.03352,0.00186
2381.99789,0.00193
2382.96227,0.00219
2383.92664,0.00254
2384.89101,0.00284
2385.85538,0.00309
2386.81975,0.00341
2387.78412,0.00384
2388.74849,0.00426
2389.71287,0.00451
2390.67724,0.00456
2391.64161,0.00445
2392.60598,0.00428
2393.57035,0.00417
2394.53472,0.00417
2395.49910,0.00421
2396.46347,0.00414
2397.42784,0.00392
2398.39221,0.00367
2399.35658,0.00363
2400.32095,0.00395
2401.28533,0.00464
2402.24970,0.00550
2403.21407,0.00624
2404.17844,0.00658
2405.14281,0.00641
2406.10718,0.00588
2407.07156,0.00525
2408.03593,0.00479
2409.00030,0.00464
2409.96467,0.00481
2410.92904,0.00517
2411.89341,0.00558
2412.85779,0.00595
2413.82216,0.00624
2414.78653,0.00644
2415.75090,0.00648
2416.71527,0.00627
2417.67964,0.00580
2418.64401,0.00518
2419.60839,0.00459
2420.57276,0.00424
2421.53713,0.00428
2422.50150,0.00468
2423.46587,0.00524
2424.43024,0.00568
2425.39462,0.00583
2426.35899,0.00571
2427.32336,0.00545
2428.28773,0.00524
2429.25210,0.00524
2430.21647,0.00543
2431.18085,0.00567
2432.14522,0.00578
2433.10959,0.00570
2434.07396,0.00554
2435.03833,0.00548
2436.00270,0.00564
2436.96708,0.00602
2437.93145,0.00652
2438.89582,0.00702
2439.86019,0.00744
2440.82456,0.00776
2441.78893,0.00792
2442.75331,0.00785
2443.71768,0.00753
2444.68205,0.00703
2445.64642,0.00652
2446.61079,0.00614
2447.57516,0.00600
2448.53953,0.00616
2449.50391,0.00658
2450.46828,0.00711
2451.43265,0.00760
2452.39702,0.00794
2453.36139,0.00812
2454.32576,0.00823
2455.29014,0.00836
2456.25451,0.00851
2457.21888,0.00861
2458.18325,0.00856
2459.14762,0.00837
2460.11199,0.00819
2461.07637,0.00825
2462.04074,0.00865
2463.00511,0.00934
2463.96948,0.01012
2464.93385,0.01075
2465.89822,0.01105
2466.86260,0.01100
2467.82697,0.01072
2468.79134,0.01039
2469.75571,0.01013
2470.72008,0.01003
2471.68445,0.01007
2472.64883,0.01020
2473.61320,0.01034
2474.57757,0.01045
2475.54194,0.01060
2476.50631,0.01088
2477.47068,0.01129
2478.43506,0.01171
2479.39943,0.01196
2480.36380,0.01186
2481.32817,0.01143
2482.29254,0.01082
2483.25691,0.01025
2484.22128,0.00987
2485.18566,0.00971
2486.15003,0.00970
2487.11440,0.00982
2488.07877,0.01007
2489.04314,0.01045
2490.00751,0.01093
2490.97189,0.01143
2491.93626,0.01181
2492.90063,0.01194
2493.86500,0.01178
2494.82937,0.01139
2495.79374,0.01093
2496.75812,0.01064
2497.72249,0.01069
2498.68686,0.01111
2499.65123,0.01178
2500.61560,0.01250
2501.57997,0.01309
2502.54435,0.01351
2503.50872,0.01383
2504.47309,0.01413
2505.43746,0.01445
2506.40183,0.01475
2507.36620,0.01498
2508.33058,0.01510
2509.29495,0.01516
2510.25932,0.01519
2511.22369,0.01520
2512.18806,0.01508
2513.15243,0.01478
2514.11680,0.01436
2515.08118,0.01398
2516.04555,0.01382
2517.00992,0.01394
2517.97429,0.01428
2518.93866,0.01473
2519.90303,0.01517
2520.86741,0.01555
2521.83178,0.01581
2522.79615,0.01596
2523.76052,0.01605
2524.72489,0.01618
2525.68926,0.01639
2526.65364,0.01660
2527.61801,0.01660
2528.58238,0.01625
2529.54675,0.01561
2530.51112,0.01494
2531.47549,0.01455
2532.43987,0.01463
2533.40424,0.01515
2534.36861,0.01593
2535.33298,0.01674
2536.29735,0.01742
2537.26172,0.01791
2538.22610,0.01822
2539.19047,0.01835
2540.15484,0.01826
2541.11921,0.01798
2542.08358,0.01763
2543.04795,0.01742
2544.01233,0.01753
2544.97670,0.01797
2545.94107,0.01855
2546.90544,0.01899
2547.86981,0.01913
2548.83418,0.01905
2549.79855,0.01893
2550.76293,0.01892
2551.72730,0.01906
2552.69167,0.01927
2553.65604,0.01948
2554.62041,0.01970
2555.58478,0.01998
2556.54916,0.02036
2557.51353,0.02075
2558.47790,0.02099
2559.44227,0.02092
2560.40664,0.02053
2561.37101,0.01997
2562.33539,0.01944
2563.29976,0.01910
2564.26413,0.01893
2565.22850,0.01882
2566.19287,0.01868
2567.15724,0.01848
2568.12162,0.01833
2569.08599,0.01833
2570.05036,0.01858
2571.01473,0.01907
2571.97910,0.01971
2572.94347,0.02038
2573.90785,0.02096
2574.87222,0.02139
2575.83659,0.02169
2576.80096,0.02192
2577.76533,0.02209
2578.72970,0.02216
2579.69407,0.02211
2580.65845,0.02198
2581.62282,0.02185
2582.58719,0.02183
2583.55156,0.02204
2584.51593,0.02249
2585.48030,0.02304
2586.44468,0.02349
2587.40905,0.02367
2588.37342,0.02355
2589.33779,0.02331
2590.30216,0.02319
2591.26653,0.02339
2592.23091,0.02391
2593.19528,0.02453
2594.15965,0.02500
2595.12402,0.02516
2596.08839,0.02501
2597.05276,0.02462
2598.01714,0.02407
2598.98151,0.02348
2599.94588,0.02296
2600.91025,0.02262
2601.87462,0.02258
2602.83899,0.02285
2603.80337,0.02342
2604.76774,0.02417
2605.73211,0.02495
2606.69648,0.02566
2607.66085,0.02622
2608.62522,0.02665
2609.58959,0.02699
2610.55397,0.02737
2611.51834,0.02785
2612.48271,0.02844
2613.44708,0.02902
2614.41145,0.02940
2615.37582,0.02944
2616.34020,0.02911
2617.30457,0.02855
2618.26894,0.02802
2619.23331,0.02770
2620.19768,0.02763
2621.16205,0.02774
2622.12643,0.02796
2623.09080,0.02832
2624.05517,0.02882
2625.01954,0.02936
2625.98391,0.02977
2626.94828,0.02990
2627.91266,0.02975
2628.87703,0.02948
2629.84140,0.02934
2630.80577,0.02946
2631.77014,0.02984
2632.73451,0.03034
2633.69889,0.03084
2634.66326,0.03123
2635.62763,0.03154
2636.59200,0.03185
2637.55637,0.03227
2638.52074,0.03282
2639.48512,0.03334
2640.44949,0.03365
2641.41386,0.03362
2642.37823,0.03333
2643.34260,0.03299
2644.30697,0.03286
2645.27134,0.03307
2646.23572,0.03348
2647.20009,0.03377
2648.16446,0.03363
2649.12883,0.03300
2650.09320,0.03220
2651.05757,0.03172
2652.02195,0.03200
2652.98632,0.03305
2653.95069,0.03447
2654.91506,0.03571
2655.87943,0.03638
2656.84380,0.03646
2657.80818,0.03622
2658.77255,0.03595
2659.73692,0.03578
2660.70129,0.03571
2661.66566,0.03567
2662.63003,0.03566
2663.59441,0.03575
2664.55878,0.03606
2665.52315,0.03657
2666.48752,0.03713
2667.45189,0.03747
2668.41626,0.03742
2669.38064,0.03706
2670.34501,0.03667
2671.30938,0.03663
2672.27375,0.03708
2673.23812,0.03785
2674.20249,0.03855
2675.16686,0.03880
2676.13124,0.03851
2677.09561,0.03787
2678.05998,0.03723
2679.02435,0.03688
2679.98872,0.03690
2680.95309,0.03720
2681.91747,0.03760
2682.88184,0.03798
2683.84621,0.03833
2684.81058,0.03873
2685.77495,0.03922
2686.73932,0.03977
2687.70370,0.04026
2688.66807,0.04059
2689.63244,0.04079
2690.59681,0.04099
2691.56118,0.04141
2692.52555,0.04210
2693.48993,0.04293
2694.45430,0.04365
2695.41867,0.04408
2696.38304,0.04420
2697.34741,0.04421
2698.31178,0.04433
2699.27616,0.04463
2700.24053,0.04499
2701.20490,0.04514
2702.16927,0.04495
2703.13364,0.04454
2704.09801,0.04423
2705.06239,0.04427
2706.02676,0.04468
2706.99113,0.04524
2707.95550,0.04569
2708.91987,0.04594
2709.88424,0.04612
2710.84861,0.04644
2711.81299,0.04700
2712.77736,0.04765
2713.74173,0.04819
2714.70610,0.04851
2715.67047,0.04871
2716.63484,0.04902
2717.59922,0.04955
2718.56359,0.05022
2719.52796,0.05073
2720.49233,0.05083
2721.45670,0.05053
2722.42107,0.05012
2723.38545,0.04993
2724.34982,0.05013
2725.31419,0.05058
2726.27856,0.05106
2727.24293,0.05147
2728.20730,0.05188
2729.17168,0.05245
2730.13605,0.05320
2731.10042,0.05396
2732.06479,0.05451
2733.02916,0.05470
2733.99353,0.05457
2734.95791,0.05429
2735.92228,0.05405
2736.88665,0.05400
2737.85102,0.05424
2738.81539,0.05483
2739.77976,0.05571
2740.74413,0.05678
2741.70851,0.05780
2742.67288,0.05850
2743.63725,0.05867
2744.60162,0.05828
2745.56599,0.05758
2746.53036,0.05694
2747.49474,0.05674
2748.45911,0.05714
2749.42348,0.05811
2750.38785,0.05935
2751.35222,0.06052
2752.31659,0.06132
2753.28097,0.06167
2754.24534,0.06170
2755.20971,0.06165
2756.17408,0.06171
2757.13845,0.06197
2758.10282,0.06237
2759.06720,0.06277
2760.03157,0.06304
2760.99594,0.06308
2761.96031,0.06295
2762.92468,0.06283
2763.88905,0.06296
2764.85343,0.06346
2765.81780,0.06428
2766.78217,0.06518
2767.74654,0.06597
2768.71091,0.06659
2769.67528,0.06709
2770.63965,0.06753
2771.60403,0.06796
2772.56840,0.06840
2773.53277,0.06887
2774.49714,0.06932
2775.46151,0.06968
2776.42588,0.06989
2777.39026,0.06997
2778.35463,0.07005
2779.31900,0.07023
2780.28337,0.07053
2781.24774,0.07088
2782.21211,0.07114
2783.17649,0.07125
2784.14086,0.07123
2785.10523,0.07111
2786.06960,0.07094
2787.03397,0.07080
2787.99834,0.07076
2788.96272,0.07089
2789.92709,0.07118
2790.89146,0.07165
2791.85583,0.07230
2792.82020,0.07314
2793.78457,0.07413
2794.74895,0.07514
2795.71332,0.07601
2796.67769,0.07663
2797.64206,0.07693
2798.60643,0.07698
2799.57080,0.07692
2800.53518,0.07694
2801.49955,0.07720
2802.46392,0.07775
2803.42829,0.07852
2804.39266,0.07932
2805.35703,0.08002
2806.32140,0.08055
2807.28578,0.08095
2808.25015,0.08122
2809.21452,0.08130
2810.17889,0.08111
2811.14326,0.08071
2812.10763,0.08034
2813.07201,0.08035
2814.03638,0.08101
2815.00075,0.08234
2815.96512,0.08406
2816.92949,0.08567
2817.89386,0.08679
2818.85824,0.08737
2819.82261,0.08768
2820.78698,0.08804
2821.75135,0.08858
2822.71572,0.08915
2823.68009,0.08952
2824.64447,0.08966
2825.60884,0.08978
2826.57321,0.09023
2827.53758,0.09120
2828.50195,0.09253
2829.46632,0.09389
2830.43070,0.09494
2831.39507,0.09558
2832.35944,0.09594
2833.32381,0.09627
2834.28818,0.09682
2835.25255,0.09773
2836.21692,0.09897
2837.18130,0.10046
2838.14567,0.10207
2839.11004,0.10377
2840.07441,0.10562
2841.03878,0.10778
2842.00315,0.11050
2842.96753,0.11398
2843.93190,0.11834
2844.89627,0.12356
2845.86064,0.12953
2846.82501,0.13601
2847.78938,0.14274
2848.75376,0.14936
2849.71813,0.15544
2850.68250,0.16058
2851.64687,0.16450
2852.61124,0.16713
2853.57561,0.16856
2854.53999,0.16887
2855.50436,0.16811
2856.46873,0.16642
2857.43310,0.16410
2858.39747,0.16163
2859.36184,0.15944
2860.32622,0.15772
2861.29059,0.15640
2862.25496,0.15536
2863.21933,0.15462
2864.18370,0.15434
2865.14807,0.15471
2866.11245,0.15579
2867.07682,0.15742
2868.04119,0.15932
2869.00556,0.16121
2869.96993,0.16293
2870.93430,0.16446
2871.89867,0.16582
2872.86305,0.16701
2873.82742,0.16795
2874.79179,0.16844
2875.75616,0.16830
2876.72053,0.16749
2877.68490,0.16623
2878.64928,0.16488
2879.61365,0.16384
2880.57802,0.16333
2881.54239,0.16326
2882.50676,0.16330
2883.47113,0.16308
2884.43551,0.16246
2885.39988,0.16160
2886.36425,0.16083
2887.32862,0.16048
2888.29299,0.16070
2889.25736,0.16146
2890.22174,0.16267
2891.18611,0.16423
2892.15048,0.16606
2893.11485,0.16800
2894.07922,0.16982
2895.04359,0.17137
2896.00797,0.17270
2896.97234,0.17408
2897.93671,0.17578
2898.90108,0.17794
2899.86545,0.18039
2900.82982,0.18285
2901.79419,0.18509
2902.75857,0.18710
2903.72294,0.18913
2904.68731,0.19148
2905.65168,0.19433
2906.61605,0.19770
2907.58042,0.20145
2908.54480,0.20549
2909.50917,0.20977
2910.47354,0.21437
2911.43791,0.21947
2912.40228,0.22533
2913.36665,0.23212
2914.33103,0.23981
2915.29540,0.24814
2916.25977,0.25657
2917.22414,0.26455
2918.18851,0.27170
2919.15288,0.27799
2920.11726,0.28369
2921.08163,0.28917
2922.04600,0.29461
2923.01037,0.29985
2923.97474,0.30436
2924.93911,0.30758
2925.90349,0.30918
2926.86786,0.30928
2927.83223,0.30832
2928.79660,0.30672
2929.76097,0.30468
2930.72534,0.30218
2931.68971,0.29919
2932.65409,0.29586
2933.61846,0.29243
2934.58283,0.28912
2935.54720,0.28592
2936.51157,0.28260
2937.47594,0.27899
2938.44032,0.27504
2939.40469,0.27091
2940.36906,0.26682
2941.33343,0.26294
2942.29780,0.25929
2943.26217,0.25590
2944.22655,0.25284
2945.19092,0.25030
2946.15529,0.24852
2947.11966,0.24763
2948.08403,0.24756
2949.04840,0.24807
2950.01278,0.24895
2950.97715,0.25014
2951.94152,0.25173
2952.90589,0.25383
2953.87026,0.25647
2954.83463,0.25949
2955.79901,0.26266
2956.76338,0.26568
2957.72775,0.26827
2958.69212,0.27023
2959.65649,0.27139
2960.62086,0.27167
2961.58524,0.27110
2962.54961,0.26979
2963.51398,0.26784
2964.47835,0.26536
2965.44272,0.26246
2966.40709,0.25925
2967.37146,0.25588
2968.33584,0.25259
2969.30021,0.24955
2970.26458,0.24684
2971.22895,0.24439
2972.19332,0.24206
2973.15769,0.23975
2974.12207,0.23745
2975.08644,0.23514
2976.05081,0.23269
2977.01518,0.22990
2977.97955,0.22658
2978.94392,0.22272
2979.90830,0.21858
2980.87267,0.21465
2981.83704,0.21137
2982.80141,0.20892
2983.76578,0.20714
2984.73015,0.20564
2985.69453,0.20404
2986.65890,0.20215
2987.62327,0.19995
2988.58764,0.19750
2989.55201,0.19480
2990.51638,0.19185
2991.48076,0.18882
2992.44513,0.18600
2993.40950,0.18375
2994.37387,0.18223
2995.33824,0.18139
2996.30261,0.18101
2997.26698,0.18085
2998.23136,0.18076
2999.19573,0.18072
3000.16010,0.18078
3001.12447,0.18099
3002.08884,0.18130
3003.05321,0.18158
3004.01759,0.18172
3004.98196,0.18177
3005.94633,0.18187
3006.91070,0.18217
3007.87507,0.18260
3008.83944,0.18295
3009.80382,0.18301
3010.76819,0.18274
3011.73256,0.18226
3012.69693,0.18176
3013.66130,0.18133
3014.62567,0.18105
3015.59005,0.18107
3016.55442,0.18157
3017.51879,0.18259
3018.48316,0.18401
3019.44753,0.18550
3020.41190,0.18681
3021.37628,0.18782
3022.34065,0.18860
3023.30502,0.18925
3024.26939,0.18985
3025.23376,0.19047
3026.19813,0.19119
3027.16251,0.19217
3028.12688,0.19344
3029.09125,0.19484
3030.05562,0.19614
3031.01999,0.19717
3031.98436,0.19807
3032.94873,0.19915
3033.91311,0.20063
3034.87748,0.20249
3035.84185,0.20438
3036.80622,0.20590
3037.77059,0.20684
3038.73496,0.20729
3039.69934,0.20751
3040.66371,0.20776
3041.62808,0.20819
3042.59245,0.20890
3043.55682,0.20994
3044.52119,0.21131
3045.48557,0.21291
3046.44994,0.21453
3047.41431,0.21586
3048.37868,0.21664
3049.34305,0.21678
3050.30742,0.21649
3051.27180,0.21617
3052.23617,0.21624
3053.20054,0.21694
3054.16491,0.21828
3055.12928,0.21999
3056.09365,0.22173
3057.05803,0.22326
3058.02240,0.22462
3058.98677,0.22603
3059.95114,0.22771
3060.91551,0.22960
3061.87988,0.23140
3062.84425,0.23277
3063.80863,0.23358
3064.77300,0.23404
3065.73737,0.23457
3066.70174,0.23543
3067.66611,0.23662
3068.63048,0.23796
3069.59486,0.23924
3070.55923,0.24037
3071.52360,0.24127
3072.48797,0.24180
3073.45234,0.24182
3074.41671,0.24126
3075.38109,0.24036
3076.34546,0.23952
3077.30983,0.23913
3078.27420,0.23924
3079.23857,0.23946
3080.20294,0.23931
3081.16732,0.23856
3082.13169,0.23755
3083.09606,0.23693
3084.06043,0.23723
3085.02480,0.23858
3085.98917,0.24057
3086.95355,0.24256
3087.91792,0.24395
3088.88229,0.24438
3089.84666,0.24384
3090.81103,0.24265
3091.77540,0.24126
3092.73977,0.24007
3093.70415,0.23917
3094.66852,0.23842
3095.63289,0.23773
3096.59726,0.23730
3097.56163,0.23755
3098.52600,0.23870
3099.49038,0.24046
3100.45475,0.24208
3101.41912,0.24284
3102.38349,0.24255
3103.34786,0.24170
3104.31223,0.24102
3105.27661,0.24094
3106.24098,0.24132
3107.20535,0.24164
3108.16972,0.24146
3109.13409,0.24080
3110.09846,0.24010
3111.06284,0.23981
3112.02721,0.24010
3112.99158,0.24074
3113.95595,0.24133
3114.92032,0.24154
3115.88469,0.24137
3116.84907,0.24110
3117.81344,0.24115
3118.77781,0.24193
3119.74218,0.24366
3120.70655,0.24631
3121.67092,0.24952
3122.63530,0.25273
3123.59967,0.25538
3124.56404,0.25708
3125.52841,0.25770
3126.49278,0.25739
3127.45715,0.25652
3128.42152,0.25557
3129.38590,0.25497
3130.35027,0.25504
3131.31464,0.25589
3132.27901,0.25737
3133.24338,0.25918
3134.20775,0.26103
3135.17213,0.26272
3136.13650,0.26418
3137.10087,0.26531
3138.06524,0.26596
3139.02961,0.26610
3139.99398,0.26597
3140.95836,0.26607
3141.92273,0.26686
3142.88710,0.26848
3143.85147,0.27059
3144.81584,0.27267
3145.78021,0.27442
3146.74459,0.27592
3147.70896,0.27749
3148.67333,0.27933
3149.63770,0.28138
3150.60207,0.28343
3151.56644,0.28526
3152.53082,0.28677
3153.49519,0.28800
3154.45956,0.28906
3155.42393,0.29014
3156.38830,0.29138
3157.35267,0.29291
3158.31704,0.29474
3159.28142,0.29679
3160.24579,0.29897
3161.21016,0.30127
3162.17453,0.30381
3163.13890,0.30670
3164.10327,0.30986
3165.06765,0.31296
3166.03202,0.31549
3166.99639,0.31711
3167.96076,0.31786
3168.92513,0.31818
3169.88950,0.31866
3170.85388,0.31971
3171.81825,0.32136
3172.78262,0.32340
3173.74699,0.32555
3174.71136,0.32761
3175.67573,0.32949
3176.64011,0.33104
3177.60448,0.33208
3178.56885,0.33250
3179.53322,0.33248
3180.49759,0.33257
3181.46196,0.33346
3182.42634,0.33561
3183.39071,0.33893
3184.35508,0.34282
3185.31945,0.34650
3186.28382,0.34942
3187.24819,0.35144
3188.21257,0.35281
3189.17694,0.35393
3190.14131,0.35514
3191.10568,0.35659
3192.07005,0.35820
3193.03442,0.35973
3193.99879,0.36097
3194.96317,0.36191
3195.92754,0.36276
3196.89191,0.36379
3197.85628,0.36505
3198.82065,0.36641
3199.78502,0.36768
3200.74940,0.36892
3201.71377,0.37042
3202.67814,0.37248
3203.64251,0.37508
3204.60688,0.37774
3205.57125,0.37967
3206.53563,0.38030
3207.50000,0.37965
3208.46437,0.37842
3209.42874,0.37767
3210.39311,0.37818
3211.35748,0.38009
3212.32186,0.38293
3213.28623,0.38597
3214.25060,0.38866
3215.21497,0.39078
3216.17934,0.39243
3217.14371,0.39377
3218.10809,0.39495
3219.07246,0.39602
3220.03683,0.39695
3221.00120,0.39771
3221.96557,0.39827
3222.92994,0.39870
3223.89431,0.39920
3224.85869,0.40002
3225.82306,0.40135
3226.78743,0.40319
3227.75180,0.40532
3228.71617,0.40732
3229.68054,0.40878
3230.64492,0.40954
3231.60929,0.40985
3232.57366,0.41028
3233.53803,0.41146
3234.50240,0.41369
3235.46677,0.41690
3236.43115,0.42063
3237.39552,0.42439
3238.35989,0.42780
3239.32426,0.43068
3240.28863,0.43296
3241.25300,0.43461
3242.21738,0.43578
3243.18175,0.43679
3244.14612,0.43816
3245.11049,0.44031
3246.07486,0.44331
3247.03923,0.44683
3248.00361,0.45035
3248.96798,0.45356
3249.93235,0.45655
3250.89672,0.45969
3251.86109,0.46326
3252.82546,0.46727
3253.78983,0.47141
3254.75421,0.47536
3255.71858,0.47903
3256.68295,0.48255
3257.64732,0.48619
3258.61169,0.49016
3259.57606,0.49444
3260.54044,0.49885
3261.50481,0.50316
3262.46918,0.50720
3263.43355,0.51089
3264.39792,0.51426
3265.36229,0.51744
3266.32667,0.52057
3267.29104,0.52382
3268.25541,0.52728
3269.21978,0.53096
3270.18415,0.53483
3271.14852,0.53893
3272.11290,0.54337
3273.07727,0.54824
3274.04164,0.55346
3275.00601,0.55865
3275.97038,0.56330
3276.93475,0.56697
3277.89913,0.56955
3278.86350,0.57129
3279.82787,0.57262
3280.79224,0.57395
3281.75661,0.57547
3282.72098,0.57717
3283.68536,0.57901
3284.64973,0.58106
3285.61410,0.58344
3286.57847,0.58626
3287.54284,0.58938
3288.50721,0.59243
3289.47158,0.59496
3290.43596,0.59657
3291.40033,0.59710
3292.36470,0.59662
3293.32907,0.59553
3294.29344,0.59448
3295.25781,0.59411
3296.22219,0.59475
3297.18656,0.59615
3298.15093,0.59759
3299.11530,0.59818
3300.07967,0.59746
3301.04404,0.59564
3302.00842,0.59352
3302.97279,0.59199
3303.93716,0.59162
3304.90153,0.59226
3305.86590,0.59317
3306.83027,0.59338
3307.79465,0.59216
3308.75902,0.58946
3309.72339,0.58585
3310.68776,0.58218
3311.65213,0.57903
3312.61650,0.57640
3313.58088,0.57390
3314.54525,0.57123
3315.50962,0.56858
3316.47399,0.56653
3317.43836,0.56554
3318.40273,0.56538
3319.36710,0.56523
3320.33148,0.56419
3321.29585,0.56187
3322.26022,0.55847
3323.22459,0.55456
3324.18896,0.55067
3325.15333,0.54726
3326.11771,0.54475
3327.08208,0.54347
3328.04645,0.54340
3329.01082,0.54396
3329.97519,0.54429
3330.93956,0.54364
3331.90394,0.54184
3332.86831,0.53917
3333.83268,0.53610
3334.79705,0.53299
3335.76142,0.53006
3336.72579,0.52749
3337.69017,0.52545
3338.65454,0.52405
3339.61891,0.52314
3340.58328,0.52236
3341.54765,0.52122
3342.51202,0.51934
3343.47640,0.51665
3344.44077,0.51345
3345.40514,0.51020
3346.36951,0.50741
3347.33388,0.50531
3348.29825,0.50377
3349.26263,0.50229
3350.22700,0.50032
3351.19137,0.49768
3352.15574,0.49475
3353.12011,0.49225
3354.08448,0.49069
3355.04885,0.48991
3356.01323,0.48918
3356.97760,0.48781
3357.94197,0.48568
3358.90634,0.48325
3359.87071,0.48110
3360.83508,0.47939
3361.79946,0.47792
3362.76383,0.47643
3363.72820,0.47485
3364.69257,0.47333
3365.65694,0.47197
3366.62131,0.47071
3367.58569,0.46945
3368.55006,0.46813
3369.51443,0.46680
3370.47880,0.46548
3371.44317,0.46411
3372.40754,0.46251
3373.37192,0.46057
3374.33629,0.45834
3375.30066,0.45605
3376.26503,0.45391
3377.22940,0.45200
3378.19377,0.45020
3379.15815,0.44841
3380.12252,0.44667
3381.08689,0.44523
3382.05126,0.44426
3383.01563,0.44365
3383.98000,0.44304
3384.94437,0.44210
3385.90875,0.44074
3386.87312,0.43905
3387.83749,0.43709
3388.80186,0.43470
3389.76623,0.43180
3390.73060,0.42864
3391.69498,0.42588
3392.65935,0.42422
3393.62372,0.42388
3394.58809,0.42432
3395.55246,0.42456
3396.51683,0.42383
3397.48121,0.42208
3398.44558,0.41991
3399.40995,0.41811
3400.37432,0.41711
3401.33869,0.41677
3402.30306,0.41659
3403.26744,0.41606
3404.23181,0.41498
3405.19618,0.41345
3406.16055,0.41174
3407.12492,0.41002
3408.08929,0.40827
3409.05367,0.40640
3410.01804,0.40442
3410.98241,0.40253
3411.94678,0.40105
3412.91115,0.40011
3413.87552,0.39940
3414.83989,0.39828
3415.80427,0.39607
3416.76864,0.39266
3417.73301,0.38860
3418.69738,0.38495
3419.66175,0.38260
3420.62612,0.38187
3421.59050,0.38235
3422.55487,0.38328
3423.51924,0.38397
3424.48361,0.38413
3425.44798,0.38369
3426.41235,0.38265
3427.37673,0.38103
3428.34110,0.37901
3429.30547,0.37696
3430.26984,0.37527
3431.23421,0.37406
3432.19858,0.37303
3433.16296,0.37164
3434.12733,0.36957
3435.09170,0.36695
3436.05607,0.36431
3437.02044,0.36221
3437.98481,0.36098
3438.94919,0.36061
3439.91356,0.36089
3440.87793,0.36155
3441.84230,0.36237
3442.80667,0.36314
3443.77104,0.36373
3444.73542,0.36400
3445.69979,0.36384
3446.66416,0.36314
3447.62853,0.36180
3448.59290,0.35984
3449.55727,0.35748
3450.52164,0.35507
3451.48602,0.35294
3452.45039,0.35122
3453.41476,0.34985
3454.37913,0.34865
3455.34350,0.34746
3456.30787,0.34619
3457.27225,0.34465
3458.23662,0.34267
3459.20099,0.34017
3460.16536,0.33736
3461.12973,0.33459
3462.09410,0.33214
3463.05848,0.33012
3464.02285,0.32850
3464.98722,0.32723
3465.95159,0.32625
3466.91596,0.32527
3467.88033,0.32379
3468.84471,0.32146
3469.80908,0.31853
3470.77345,0.31589
3471.73782,0.31457
3472.70219,0.31500
3473.66656,0.31667
3474.63094,0.31841
3475.59531,0.31905
3476.55968,0.31805
3477.52405,0.31572
3478.48842,0.31288
3479.45279,0.31028
3480.41716,0.30817
3481.38154,0.30624
3482.34591,0.30406
3483.31028,0.30147
3484.27465,0.29878
3485.23902,0.29645
3486.20339,0.29470
3487.16777,0.29335
3488.13214,0.29205
3489.09651,0.29052
3490.06088,0.28865
3491.02525,0.28635
3491.98962,0.28360
3492.95400,0.28065
3493.91837,0.27814
3494.88274,0.27679
3495.84711,0.27690
3496.81148,0.27793
3497.77585,0.27879
3498.74023,0.27845
3499.70460,0.27649
3500.66897,0.27323
3501.63334,0.26944
3502.59771,0.26601
3503.56208,0.26367
3504.52646,0.26278
3505.49083,0.26317
3506.45520,0.26423
3507.41957,0.26519
3508.38394,0.26549
3509.34831,0.26505
3510.31269,0.26408
3511.27706,0.26288
3512.24143,0.26154
3513.20580,0.26004
3514.17017,0.25834
3515.13454,0.25641
3516.09891,0.25425
3517.06329,0.25183
3518.02766,0.24905
3518.99203,0.24593
3519.95640,0.24272
3520.92077,0.23984
3521.88514,0.23768
3522.84952,0.23634
3523.81389,0.23550
3524.77826,0.23463
3525.74263,0.23326
3526.70700,0.23131
3527.67137,0.22900
3528.63575,0.22661
3529.60012,0.22418
3530.56449,0.22163
3531.52886,0.21896
3532.49323,0.21642
3533.45760,0.21441
3534.42198,0.21320
3535.38635,0.21266
3536.35072,0.21234
3537.31509,0.21167
3538.27946,0.21036
3539.24383,0.20845
3540.20821,0.20626
3541.17258,0.20409
3542.13695,0.20201
3543.10132,0.19988
3544.06569,0.19764
3545.03006,0.19545
3545.99443,0.19362
3546.95881,0.19228
3547.92318,0.19123
3548.88755,0.18997
3549.85192,0.18818
3550.81629,0.18595
3551.78066,0.18381
3552.74504,0.18235
3553.70941,0.18178
3554.67378,0.18178
3555.63815,0.18167
3556.60252,0.18086
3557.56689,0.17926
3558.53127,0.17727
3559.49564,0.17560
3560.46001,0.17470
3561.42438,0.17442
3562.38875,0.17407
3563.35312,0.17292
3564.31750,0.17077
3565.28187,0.16823
3566.24624,0.16624
3567.21061,0.16535
3568.17498,0.16512
3569.13935,0.16451
3570.10373,0.16263
3571.06810,0.15933
3572.03247,0.15520
3572.99684,0.15106
3573.96121,0.14750
3574.92558,0.14476
3575.88995,0.14272
3576.85433,0.14097
3577.81870,0.13900
3578.78307,0.13642
3579.74744,0.13335
3580.71181,0.13035
3581.67618,0.12819
3582.64056,0.12736
3583.60493,0.12776
3584.56930,0.12897
3585.53367,0.13047
3586.49804,0.13192
3587.46241,0.13301
3588.42679,0.13340
3589.39116,0.13288
3590.35553,0.13153
3591.31990,0.12966
3592.28427,0.12757
3593.24864,0.12538
3594.21302,0.12308
3595.17739,0.12066
3596.14176,0.11816
3597.10613,0.11563
3598.07050,0.11304
3599.03487,0.11035
3599.99925,0.10767
3600.96362,0.10529
3601.92799,0.10357
3602.89236,0.10271
3603.85673,0.10254
3604.82110,0.10256
3605.78548,0.10220
3606.74985,0.10113
3607.71422,0.09941
3608.67859,0.09743
3609.64296,0.09554
3610.60733,0.09383
3611.57170,0.09211
3612.53608,0.09028
3613.50045,0.08851
3614.46482,0.08712
3615.42919,0.08627
3616.39356,0.08568
3617.35793,0.08473
3618.32231,0.08280
3619.28668,0.07970
3620.25105,0.07594
3621.21542,0.07241
3622.17979,0.06983
3623.14416,0.06843
3624.10854,0.06785
3625.07291,0.06752
3626.03728,0.06688
3627.00165,0.06564
3627.96602,0.06400
3628.93039,0.06260
3629.89477,0.06210
3630.85914,0.06259
3631.82351,0.06346
3632.78788,0.06391
3633.75225,0.06350
3634.71662,0.06235
3635.68100,0.06089
3636.64537,0.05950
3637.60974,0.05839
3638.57411,0.05753
3639.53848,0.05671
3640.50285,0.05582
3641.46722,0.05492
3642.43160,0.05430
3643.39597,0.05415
3644.36034,0.05439
3645.32471,0.05459
3646.28908,0.05395
3647.25345,0.05166
3648.21783,0.04742
3649.18220,0.04206
3650.14657,0.03738
3651.11094,0.03520
3652.07531,0.03613
3653.03968,0.03919
3654.00406,0.04246
3654.96843,0.04414
3655.93280,0.04332
3656.89717,0.04026
3657.86154,0.03616
3658.82591,0.03247
3659.79029,0.03005
3660.75466,0.02872
3661.71903,0.02757
3662.68340,0.02588
3663.64777,0.02353
3664.61214,0.02093
3665.57652,0.01867
3666.54089,0.01737
3667.50526,0.01759
3668.46963,0.01947
3669.43400,0.02244
3670.39837,0.02536
3671.36275,0.02718
3672.32712,0.02739
3673.29149,0.02610
3674.25586,0.02382
3675.22023,0.02125
3676.18460,0.01910
3677.14897,0.01778
3678.11335,0.01718
3679.07772,0.01689
3680.04209,0.01648
3681.00646,0.01576
3681.97083,0.01474
3682.93520,0.01353
3683.89958,0.01234
3684.86395,0.01145
3685.82832,0.01111
3686.79269,0.01129
3687.75706,0.01165
3688.72143,0.01163
3689.68581,0.01091
3690.65018,0.00959
3691.61455,0.00816
3692.57892,0.00712
3693.54329,0.00667
3694.50766,0.00677
3695.47204,0.00735
3696.43641,0.00839
3697.40078,0.00981
3698.36515,0.01135
3699.32952,0.01269
3700.29389,0.01360
3701.25827,0.01402
3702.22264,0.01407
3703.18701,0.01396
3704.15138,0.01388
3705.11575,0.01388
3706.08012,0.01383
3707.04449,0.01358
3708.00887,0.01302
3708.97324,0.01203
3709.93761,0.01038
3710.90198,0.00807
3711.86635,0.00559
3712.83072,0.00383
3713.79510,0.00355
3714.75947,0.00488
3715.72384,0.00734
3716.68821,0.01022
3717.65258,0.01282
3718.61695,0.01457
3719.58133,0.01510
3720.54570,0.01447
3721.51007,0.01317
3722.47444,0.01195
3723.43881,0.01129
3724.40318,0.01111
3725.36756,0.01092
3726.33193,0.01034
3727.29630,0.00949
3728.26067,0.00894
3729.22504,0.00916
3730.18941,0.01019
3731.15379,0.01156
3732.11816,0.01251
3733.08253,0.01232
3734.04690,0.01060
3735.01127,0.00761
3735.97564,0.00420
3736.94001,0.00146
3737.90439,0.00017
3738.86876,0.00041
3739.83313,0.00169
3740.79750,0.00321
3741.76187,0.00437
3742.72624,0.00508
3743.69062,0.00578
3744.65499,0.00713
3745.61936,0.00939
3746.58373,0.01210
3747.54810,0.01432
3748.51247,0.01526
3749.47685,0.01488
3750.44122,0.01389
3751.40559,0.01314
3752.36996,0.01297
3753.33433,0.01304
3754.29870,0.01274
3755.26308,0.01165
3756.22745,0.00968
3757.19182,0.00704
3758.15619,0.00420
3759.12056,0.00187
3760.08493,0.00065
3761.04931,0.00063
3762.01368,0.00123
3762.97805,0.00170
3763.94242,0.00169
3764.90679,0.00154
3765.87116,0.00191
3766.83554,0.00324
3767.79991,0.00547
3768.76428,0.00810
3769.72865,0.01056
3770.69302,0.01240
3771.65739,0.01332
3772.62176,0.01309
3773.58614,0.01161
3774.55051,0.00912
3775.51488,0.00628
3776.47925,0.00399
3777.44362,0.00285
3778.40799,0.00294
3779.37237,0.00382
3780.33674,0.00498
3781.30111,0.00615
3782.26548,0.00738
3783.22985,0.00867
3784.19422,0.00973
3785.15860,0.01018
3786.12297,0.00991
3787.08734,0.00926
3788.05171,0.00875
3789.01608,0.00867
3789.98045,0.00898
3790.94483,0.00942
3791.90920,0.00973
3792.87357,0.00964
3793.83794,0.00893
3794.80231,0.00752
3795.76668,0.00561
3796.73106,0.00372
3797.69543,0.00247
3798.65980,0.00236
3799.62417,0.00358
3800.58854,0.00594
3801.55291,0.00890
3802.51728,0.01167
3803.48166,0.01349
3804.44603,0.01387
3805.41040,0.01285
3806.37477,0.01094
3807.33914,0.00889
3808.30351,0.00743
3809.26789,0.00687
3810.23226,0.00708
3811.19663,0.00749
3812.16100,0.00753
3813.12537,0.00700
3814.08974,0.00638
3815.05412,0.00651
3816.01849,0.00809
3816.98286,0.01120
3817.94723,0.01514
3818.91160,0.01865
3819.87597,0.02032
3820.84035,0.01931
3821.80472,0.01591
3822.76909,0.01143
3823.73346,0.00744
3824.69783,0.00471
3825.66220,0.00303
3826.62658,0.00183
3827.59095,0.00080
3828.55532,0.00007
3829.51969,-0.00021
3830.48406,-0.00000
3831.44843,0.00051
3832.41281,0.00102
3833.37718,0.00124
3834.34155,0.00117
3835.30592,0.00119
3836.27029,0.00182
3837.23466,0.00324
3838.19903,0.00517
3839.16341,0.00707
3840.12778,0.00849
3841.09215,0.00925
3842.05652,0.00954
3843.02089,0.00983
3843.98526,0.01036
3844.94964,0.01091
3845.91401,0.01108
3846.87838,0.01077
3847.84275,0.01026
3848.80712,0.00997
3849.77149,0.01043
3850.73587,0.01218
3851.70024,0.01500
3852.66461,0.01716
3853.62898,0.01637
3854.59335,0.01195
3855.55772,0.00593
3856.52210,0.00138
3857.48647,0.00000
3858.45084,0.00146
3859.41521,0.00461
3860.37958,0.00849
3861.34395,0.01218
3862.30833,0.01467
3863.27270,0.01536
3864.23707,0.01449
3865.20144,0.01282
3866.16581,0.01111
3867.13018,0.00984
3868.09455,0.00916
3869.05893,0.00887
3870.02330,0.00858
3870.98767,0.00822
3871.95204,0.00809
3872.91641,0.00839
3873.88078,0.00890
3874.84516,0.00916
3875.80953,0.00888
3876.77390,0.00788
3877.73827,0.00612
3878.70264,0.00393
3879.66701,0.00222
3880.63139,0.00204
3881.59576,0.00385
3882.56013,0.00709
3883.52450,0.01043
3884.48887,0.01239
3885.45324,0.01212
3886.41762,0.00985
3887.38199,0.00673
3888.34636,0.00403
3889.31073,0.00247
3890.27510,0.00205
3891.23947,0.00232
3892.20385,0.00272
3893.16822,0.00286
3894.13259,0.00281
3895.09696,0.00304
3896.06133,0.00416
3897.02570,0.00647
3897.99007,0.00980
3898.95445,0.01357
3899.91882,0.01680
3900.88319,0.01843
3901.84756,0.01792
3902.81193,0.01574
3903.77630,0.01306
3904.74068,0.01108
3905.70505,0.01036
3906.66942,0.01067
3907.63379,0.01136
3908.59816,0.01179
3909.56253,0.01176
3910.52691,0.01148
3911.49128,0.01111
3912.45565,0.01058
3913.42002,0.00976
3914.38439,0.00869
3915.34876,0.00747
3916.31314,0.00600
3917.27751,0.00419
3918.24188,0.00220
3919.20625,0.00054
3920.17062,-0.00029
3921.13499,-0.00000
3922.09937,0.00128
3923.06374,0.00299
3924.02811,0.00435
3924.99248,0.00478
3925.95685,0.00426
3926.92122,0.00326
3927.88560,0.00243
3928.84997,0.00244
3929.81434,0.00374
3930.77871,0.00618
3931.74308,0.00892
3932.70745,0.01080
3933.67182,0.01112
3934.63620,0.00997
3935.60057,0.00805
3936.56494,0.00626
3937.52931,0.00529
3938.49368,0.00536
3939.45805,0.00633
3940.42243,0.00801
3941.38680,0.01041
3942.35117,0.01356
3943.31554,0.01720
3944.27991,0.02075
3945.24428,0.02353
3946.20866,0.02493
3947.17303,0.02453
3948.13740,0.02234
3949.10177,0.01880
3950.06614,0.01448
3951.03051,0.00992
3951.99489,0.00563
3952.95926,0.00232
3953.92363,0.00071
3954.88800,0.00115
3955.85237,0.00332
3956.81674,0.00630
3957.78112,0.00887
3958.74549,0.01003
3959.70986,0.00969
3960.67423,0.00864
3961.63860,0.00789
3962.60297,0.00781
3963.56734,0.00800
3964.53172,0.00772
3965.49609,0.00658
3966.46046,0.00483
3967.42483,0.00341
3968.38920,0.00335
3969.35357,0.00486
3970.31795,0.00696
3971.28232,0.00824
3972.24669,0.00804
3973.21106,0.00671
3974.17543,0.00520
3975.13980,0.00433
3976.10418,0.00448
3977.06855,0.00537
3978.03292,0.00621
3978.99729,0.00639
3979.96166,0.00602
3980.92603,0.00565
3981.89041,0.00561
3982.85478,0.00599
3983.81915,0.00681
3984.78352,0.00770
3985.74789,0.00778
3986.71226,0.00635
3987.67664,0.00390
3988.64101,0.00171
3989.60538,0.00051
3990.56975,-0.00000
3991.53412,-0.00012
3992.49849,0.00028
3993.46287,0.00106
3994.42724,0.00143
3995.39161,0.00087
3996.35598,0.00000
