   600.71741	     0.14917
   601.68164	     0.14912
   602.64587	     0.14898
   603.61011	     0.14875
   604.57434	     0.14847
   605.53857	     0.14813
   606.50281	     0.14769
   607.46704	     0.14713
   608.43127	     0.14643
   609.39551	     0.14561
   610.35974	     0.14472
   611.32397	     0.14384
   612.28821	     0.14306
   613.25244	     0.14247
   614.21667	     0.14211
   615.18091	     0.14200
   616.14514	     0.14209
   617.10938	     0.14231
   618.07361	     0.14257
   619.03784	     0.14279
   620.00208	     0.14289
   620.96631	     0.14287
   621.93054	     0.14273
   622.89478	     0.14254
   623.85901	     0.14235
   624.82324	     0.14224
   625.78748	     0.14225
   626.75171	     0.14238
   627.71594	     0.14261
   628.68018	     0.14287
   629.64441	     0.14312
   630.60864	     0.14331
   631.57288	     0.14340
   632.53711	     0.14341
   633.50134	     0.14335
   634.46558	     0.14324
   635.42981	     0.14309
   636.39404	     0.14292
   637.35828	     0.14274
   638.32251	     0.14256
   639.28674	     0.14238
   640.25098	     0.14221
   641.21521	     0.14206
   642.17944	     0.14191
   643.14368	     0.14174
   644.10791	     0.14154
   645.07214	     0.14131
   646.03638	     0.14106
   647.00061	     0.14083
   647.96484	     0.14065
   648.92908	     0.14058
   649.89331	     0.14064
   650.85754	     0.14081
   651.82178	     0.14107
   652.78601	     0.14135
   653.75024	     0.14158
   654.71448	     0.14173
   655.67871	     0.14178
   656.64294	     0.14172
   657.60718	     0.14159
   658.57141	     0.14141
   659.53564	     0.14122
   660.49988	     0.14104
   661.46411	     0.14088
   662.42834	     0.14074
   663.39258	     0.14064
   664.35681	     0.14059
   665.32104	     0.14060
   666.28528	     0.14070
   667.24951	     0.14088
   668.21375	     0.14115
   669.17798	     0.14147
   670.14221	     0.14184
   671.10645	     0.14224
   672.07068	     0.14267
   673.03491	     0.14315
   673.99915	     0.14369
   674.96338	     0.14428
   675.92761	     0.14490
   676.89185	     0.14550
   677.85608	     0.14606
   678.82031	     0.14652
   679.78455	     0.14687
   680.74878	     0.14710
   681.71301	     0.14723
   682.67725	     0.14729
   683.64148	     0.14730
   684.60571	     0.14730
   685.56995	     0.14730
   686.53418	     0.14732
   687.49841	     0.14737
   688.46265	     0.14745
   689.42688	     0.14753
   690.39111	     0.14760
   691.35535	     0.14763
   692.31958	     0.14764
   693.28381	     0.14761
   694.24805	     0.14757
   695.21228	     0.14752
   696.17651	     0.14749
   697.14075	     0.14748
   698.10498	     0.14748
   699.06921	     0.14748
   700.03345	     0.14749
   700.99768	     0.14751
   701.96191	     0.14756
   702.92615	     0.14766
   703.89038	     0.14785
   704.85461	     0.14813
   705.81885	     0.14849
   706.78308	     0.14893
   707.74731	     0.14939
   708.71155	     0.14985
   709.67578	     0.15026
   710.64001	     0.15059
   711.60425	     0.15085
   712.56848	     0.15104
   713.53271	     0.15118
   714.49695	     0.15130
   715.46118	     0.15144
   716.42542	     0.15161
   717.38965	     0.15185
   718.35388	     0.15215
   719.31812	     0.15253
   720.28235	     0.15299
   721.24658	     0.15353
   722.21082	     0.15414
   723.17505	     0.15483
   724.13928	     0.15559
   725.10352	     0.15642
   726.06775	     0.15730
   727.03198	     0.15822
   727.99622	     0.15915
   728.96045	     0.16007
   729.92468	     0.16098
   730.88892	     0.16189
   731.85315	     0.16281
   732.81738	     0.16377
   733.78162	     0.16477
   734.74585	     0.16581
   735.71008	     0.16684
   736.67432	     0.16781
   737.63855	     0.16869
   738.60278	     0.16943
   739.56702	     0.17005
   740.53125	     0.17058
   741.49548	     0.17106
   742.45972	     0.17155
   743.42395	     0.17209
   744.38818	     0.17267
   745.35242	     0.17330
   746.31665	     0.17393
   747.28088	     0.17454
   748.24512	     0.17513
   749.20935	     0.17570
   750.17358	     0.17626
   751.13782	     0.17682
   752.10205	     0.17738
   753.06628	     0.17792
   754.03052	     0.17841
   754.99475	     0.17884
   755.95898	     0.17918
   756.92322	     0.17946
   757.88745	     0.17969
   758.85168	     0.17989
   759.81592	     0.18011
   760.78015	     0.18036
   761.74438	     0.18065
   762.70862	     0.18100
   763.67285	     0.18141
   764.63708	     0.18187
   765.60132	     0.18239
   766.56555	     0.18297
   767.52979	     0.18360
   768.49402	     0.18426
   769.45825	     0.18492
   770.42249	     0.18554
   771.38672	     0.18609
   772.35095	     0.18654
   773.31519	     0.18686
   774.27942	     0.18707
   775.24365	     0.18716
   776.20789	     0.18720
   777.17212	     0.18723
   778.13635	     0.18731
   779.10059	     0.18749
   780.06482	     0.18784
   781.02905	     0.18835
   781.99329	     0.18903
   782.95752	     0.18983
   783.92175	     0.19072
   784.88599	     0.19164
   785.85022	     0.19254
   786.81445	     0.19339
   787.77869	     0.19418
   788.74292	     0.19489
   789.70715	     0.19553
   790.67139	     0.19609
   791.63562	     0.19659
   792.59985	     0.19704
   793.56409	     0.19744
   794.52832	     0.19784
   795.49255	     0.19826
   796.45679	     0.19872
   797.42102	     0.19923
   798.38525	     0.19977
   799.34949	     0.20032
   800.31372	     0.20083
   801.27795	     0.20125
   802.24219	     0.20158
   803.20642	     0.20180
   804.17065	     0.20194
   805.13489	     0.20202
   806.09912	     0.20208
   807.06335	     0.20216
   808.02759	     0.20229
   808.99182	     0.20248
   809.95605	     0.20273
   810.92029	     0.20304
   811.88452	     0.20341
   812.84875	     0.20381
   813.81299	     0.20424
   814.77722	     0.20466
   815.74146	     0.20507
   816.70569	     0.20546
   817.66992	     0.20584
   818.63416	     0.20620
   819.59839	     0.20656
   820.56262	     0.20693
   821.52686	     0.20732
   822.49109	     0.20771
   823.45532	     0.20813
   824.41956	     0.20856
   825.38379	     0.20903
   826.34802	     0.20953
   827.31226	     0.21008
   828.27649	     0.21068
   829.24072	     0.21131
   830.20496	     0.21195
   831.16919	     0.21257
   832.13342	     0.21315
   833.09766	     0.21366
   834.06189	     0.21410
   835.02612	     0.21446
   835.99036	     0.21474
   836.95459	     0.21495
   837.91882	     0.21510
   838.88306	     0.21519
   839.84729	     0.21521
   840.81152	     0.21516
   841.77576	     0.21501
   842.73999	     0.21475
   843.70422	     0.21436
   844.66846	     0.21384
   845.63269	     0.21318
   846.59692	     0.21241
   847.56116	     0.21157
   848.52539	     0.21072
   849.48962	     0.20991
   850.45386	     0.20919
   851.41809	     0.20861
   852.38232	     0.20816
   853.34656	     0.20784
   854.31079	     0.20761
   855.27502	     0.20746
   856.23926	     0.20736
   857.20349	     0.20730
   858.16772	     0.20731
   859.13196	     0.20739
   860.09619	     0.20756
   861.06042	     0.20785
   862.02466	     0.20826
   862.98889	     0.20881
   863.95313	     0.20948
   864.91736	     0.21029
   865.88159	     0.21123
   866.84583	     0.21230
   867.81006	     0.21347
   868.77429	     0.21471
   869.73853	     0.21598
   870.70276	     0.21722
   871.66699	     0.21839
   872.63123	     0.21946
   873.59546	     0.22040
   874.55969	     0.22123
   875.52393	     0.22197
   876.48816	     0.22263
   877.45239	     0.22325
   878.41663	     0.22385
   879.38086	     0.22444
   880.34509	     0.22500
   881.30933	     0.22553
   882.27356	     0.22598
   883.23779	     0.22632
   884.20203	     0.22653
   885.16626	     0.22662
   886.13049	     0.22659
   887.09473	     0.22648
   888.05896	     0.22632
   889.02319	     0.22616
   889.98743	     0.22603
   890.95166	     0.22593
   891.91589	     0.22587
   892.88013	     0.22586
   893.84436	     0.22591
   894.80859	     0.22603
   895.77283	     0.22625
   896.73706	     0.22660
   897.70129	     0.22711
   898.66553	     0.22777
   899.62976	     0.22857
   900.59399	     0.22947
   901.55823	     0.23044
   902.52246	     0.23140
   903.48669	     0.23230
   904.45093	     0.23309
   905.41516	     0.23374
   906.37939	     0.23424
   907.34363	     0.23459
   908.30786	     0.23480
   909.27209	     0.23490
   910.23633	     0.23495
   911.20056	     0.23496
   912.16479	     0.23498
   913.12903	     0.23504
   914.09326	     0.23515
   915.05750	     0.23535
   916.02173	     0.23564
   916.98596	     0.23604
   917.95020	     0.23654
   918.91443	     0.23714
   919.87866	     0.23778
   920.84290	     0.23842
   921.80713	     0.23896
   922.77136	     0.23934
   923.73560	     0.23948
   924.69983	     0.23934
   925.66406	     0.23892
   926.62830	     0.23824
   927.59253	     0.23735
   928.55676	     0.23633
   929.52100	     0.23527
   930.48523	     0.23425
   931.44946	     0.23334
   932.41370	     0.23261
   933.37793	     0.23210
   934.34216	     0.23185
   935.30640	     0.23187
   936.27063	     0.23215
   937.23486	     0.23264
   938.19910	     0.23328
   939.16333	     0.23398
   940.12756	     0.23466
   941.09180	     0.23525
   942.05603	     0.23567
   943.02026	     0.23589
   943.98450	     0.23588
   944.94873	     0.23568
   945.91296	     0.23529
   946.87720	     0.23475
   947.84143	     0.23409
   948.80566	     0.23334
   949.76990	     0.23250
   950.73413	     0.23157
   951.69836	     0.23053
   952.66260	     0.22938
   953.62683	     0.22812
   954.59106	     0.22678
   955.55530	     0.22537
   956.51953	     0.22394
   957.48376	     0.22253
   958.44800	     0.22115
   959.41223	     0.21985
   960.37646	     0.21864
   961.34070	     0.21753
   962.30493	     0.21656
   963.26917	     0.21575
   964.23340	     0.21512
   965.19763	     0.21467
   966.16187	     0.21441
   967.12610	     0.21429
   968.09033	     0.21430
   969.05457	     0.21437
   970.01880	     0.21450
   970.98303	     0.21465
   971.94727	     0.21483
   972.91150	     0.21504
   973.87573	     0.21530
   974.83997	     0.21563
   975.80420	     0.21603
   976.76843	     0.21650
   977.73267	     0.21704
   978.69690	     0.21763
   979.66113	     0.21825
   980.62537	     0.21887
   981.58960	     0.21943
   982.55383	     0.21989
   983.51807	     0.22019
   984.48230	     0.22029
   985.44653	     0.22015
   986.41077	     0.21977
   987.37500	     0.21915
   988.33923	     0.21833
   989.30347	     0.21735
   990.26770	     0.21627
   991.23193	     0.21513
   992.19617	     0.21396
   993.16040	     0.21279
   994.12463	     0.21165
   995.08887	     0.21052
   996.05310	     0.20939
   997.01733	     0.20823
   997.98157	     0.20699
   998.94580	     0.20565
   999.91003	     0.20419
  1000.87427	     0.20258
  1001.83850	     0.20085
  1002.80273	     0.19899
  1003.76697	     0.19701
  1004.73120	     0.19490
  1005.69543	     0.19264
  1006.65967	     0.19021
  1007.62390	     0.18760
  1008.58813	     0.18482
  1009.55237	     0.18192
  1010.51660	     0.17896
  1011.48083	     0.17599
  1012.44507	     0.17308
  1013.40930	     0.17025
  1014.37354	     0.16750
  1015.33777	     0.16482
  1016.30200	     0.16219
  1017.26624	     0.15960
  1018.23047	     0.15707
  1019.19470	     0.15462
  1020.15894	     0.15230
  1021.12317	     0.15011
  1022.08740	     0.14807
  1023.05164	     0.14616
  1024.01587	     0.14436
  1024.98010	     0.14263
  1025.94434	     0.14096
  1026.90857	     0.13933
  1027.87280	     0.13775
  1028.83704	     0.13621
  1029.80127	     0.13473
  1030.76550	     0.13330
  1031.72974	     0.13191
  1032.69397	     0.13055
  1033.65820	     0.12921
  1034.62244	     0.12789
  1035.58667	     0.12658
  1036.55090	     0.12530
  1037.51514	     0.12405
  1038.47937	     0.12285
  1039.44360	     0.12170
  1040.40784	     0.12061
  1041.37207	     0.11960
  1042.33630	     0.11865
  1043.30054	     0.11778
  1044.26477	     0.11698
  1045.22900	     0.11624
  1046.19324	     0.11554
  1047.15747	     0.11484
  1048.12170	     0.11413
  1049.08594	     0.11336
  1050.05017	     0.11253
  1051.01440	     0.11161
  1051.97864	     0.11064
  1052.94287	     0.10963
  1053.90710	     0.10862
  1054.87134	     0.10767
  1055.83557	     0.10681
  1056.79980	     0.10608
  1057.76404	     0.10549
  1058.72827	     0.10504
  1059.69250	     0.10470
  1060.65674	     0.10444
  1061.62097	     0.10421
  1062.58521	     0.10400
  1063.54944	     0.10382
  1064.51367	     0.10368
  1065.47791	     0.10364
  1066.44214	     0.10371
  1067.40637	     0.10391
  1068.37061	     0.10422
  1069.33484	     0.10457
  1070.29907	     0.10489
  1071.26331	     0.10511
  1072.22754	     0.10517
  1073.19177	     0.10507
  1074.15601	     0.10484
  1075.12024	     0.10456
  1076.08447	     0.10429
  1077.04871	     0.10410
  1078.01294	     0.10401
  1078.97717	     0.10398
  1079.94141	     0.10399
  1080.90564	     0.10397
  1081.86987	     0.10388
  1082.83411	     0.10373
  1083.79834	     0.10356
  1084.76257	     0.10342
  1085.72681	     0.10342
  1086.69104	     0.10364
  1087.65527	     0.10413
  1088.61951	     0.10491
  1089.58374	     0.10595
  1090.54797	     0.10719
  1091.51221	     0.10856
  1092.47644	     0.10998
  1093.44067	     0.11140
  1094.40491	     0.11278
  1095.36914	     0.11410
  1096.33337	     0.11535
  1097.29761	     0.11655
  1098.26184	     0.11770
  1099.22607	     0.11881
  1100.19031	     0.11987
  1101.15454	     0.12090
  1102.11877	     0.12190
  1103.08301	     0.12290
  1104.04724	     0.12393
  1105.01147	     0.12500
  1105.97571	     0.12611
  1106.93994	     0.12725
  1107.90417	     0.12836
  1108.86841	     0.12941
  1109.83264	     0.13034
  1110.79688	     0.13112
  1111.76111	     0.13176
  1112.72534	     0.13229
  1113.68958	     0.13279
  1114.65381	     0.13334
  1115.61804	     0.13399
  1116.58228	     0.13480
  1117.54651	     0.13576
  1118.51074	     0.13686
  1119.47498	     0.13804
  1120.43921	     0.13928
  1121.40344	     0.14053
  1122.36768	     0.14181
  1123.33191	     0.14314
  1124.29614	     0.14454
  1125.26038	     0.14606
  1126.22461	     0.14772
  1127.18884	     0.14950
  1128.15308	     0.15136
  1129.11731	     0.15325
  1130.08154	     0.15511
  1131.04578	     0.15688
  1132.01001	     0.15853
  1132.97424	     0.16007
  1133.93848	     0.16150
  1134.90271	     0.16285
  1135.86694	     0.16415
  1136.83118	     0.16541
  1137.79541	     0.16665
  1138.75964	     0.16785
  1139.72388	     0.16900
  1140.68811	     0.17010
  1141.65234	     0.17112
  1142.61658	     0.17207
  1143.58081	     0.17292
  1144.54504	     0.17369
  1145.50928	     0.17435
  1146.47351	     0.17490
  1147.43774	     0.17533
  1148.40198	     0.17566
  1149.36621	     0.17588
  1150.33044	     0.17602
  1151.29468	     0.17609
  1152.25891	     0.17614
  1153.22314	     0.17619
  1154.18738	     0.17628
  1155.15161	     0.17643
  1156.11584	     0.17666
  1157.08008	     0.17697
  1158.04431	     0.17735
  1159.00854	     0.17778
  1159.97278	     0.17822
  1160.93701	     0.17863
  1161.90125	     0.17898
  1162.86548	     0.17925
  1163.82971	     0.17942
  1164.79395	     0.17952
  1165.75818	     0.17957
  1166.72241	     0.17962
  1167.68665	     0.17970
  1168.65088	     0.17984
  1169.61511	     0.18002
  1170.57935	     0.18024
  1171.54358	     0.18046
  1172.50781	     0.18066
  1173.47205	     0.18082
  1174.43628	     0.18093
  1175.40051	     0.18100
  1176.36475	     0.18105
  1177.32898	     0.18110
  1178.29321	     0.18113
  1179.25745	     0.18114
  1180.22168	     0.18109
  1181.18591	     0.18095
  1182.15015	     0.18067
  1183.11438	     0.18024
  1184.07861	     0.17964
  1185.04285	     0.17890
  1186.00708	     0.17803
  1186.97131	     0.17704
  1187.93555	     0.17596
  1188.89978	     0.17478
  1189.86401	     0.17349
  1190.82825	     0.17209
  1191.79248	     0.17059
  1192.75671	     0.16899
  1193.72095	     0.16731
  1194.68518	     0.16557
  1195.64941	     0.16381
  1196.61365	     0.16203
  1197.57788	     0.16024
  1198.54211	     0.15843
  1199.50635	     0.15659
  1200.47058	     0.15470
  1201.43481	     0.15276
  1202.39905	     0.15078
  1203.36328	     0.14878
  1204.32751	     0.14678
  1205.29175	     0.14481
  1206.25598	     0.14288
  1207.22021	     0.14100
  1208.18445	     0.13918
  1209.14868	     0.13740
  1210.11292	     0.13568
  1211.07715	     0.13401
  1212.04138	     0.13240
  1213.00562	     0.13086
  1213.96985	     0.12941
  1214.93408	     0.12805
  1215.89832	     0.12680
  1216.86255	     0.12567
  1217.82678	     0.12466
  1218.79102	     0.12376
  1219.75525	     0.12296
  1220.71948	     0.12225
  1221.68372	     0.12159
  1222.64795	     0.12098
  1223.61218	     0.12038
  1224.57642	     0.11981
  1225.54065	     0.11925
  1226.50488	     0.11873
  1227.46912	     0.11824
  1228.43335	     0.11782
  1229.39758	     0.11745
  1230.36182	     0.11715
  1231.32605	     0.11689
  1232.29028	     0.11666
  1233.25452	     0.11645
  1234.21875	     0.11626
  1235.18298	     0.11609
  1236.14722	     0.11597
  1237.11145	     0.11592
  1238.07568	     0.11596
  1239.03992	     0.11612
  1240.00415	     0.11642
  1240.96838	     0.11685
  1241.93262	     0.11741
  1242.89685	     0.11810
  1243.86108	     0.11889
  1244.82532	     0.11975
  1245.78955	     0.12067
  1246.75378	     0.12162
  1247.71802	     0.12258
  1248.68225	     0.12356
  1249.64648	     0.12455
  1250.61072	     0.12557
  1251.57495	     0.12664
  1252.53918	     0.12777
  1253.50342	     0.12899
  1254.46765	     0.13030
  1255.43188	     0.13169
  1256.39612	     0.13315
  1257.36035	     0.13465
  1258.32458	     0.13615
  1259.28882	     0.13763
  1260.25305	     0.13906
  1261.21729	     0.14044
  1262.18152	     0.14176
  1263.14575	     0.14302
  1264.10999	     0.14423
  1265.07422	     0.14538
  1266.03845	     0.14649
  1267.00269	     0.14754
  1267.96692	     0.14851
  1268.93115	     0.14940
  1269.89539	     0.15020
  1270.85962	     0.15090
  1271.82385	     0.15152
  1272.78809	     0.15206
  1273.75232	     0.15253
  1274.71655	     0.15294
  1275.68079	     0.15330
  1276.64502	     0.15362
  1277.60925	     0.15390
  1278.57349	     0.15415
  1279.53772	     0.15437
  1280.50195	     0.15458
  1281.46619	     0.15476
  1282.43042	     0.15493
  1283.39465	     0.15507
  1284.35889	     0.15517
  1285.32312	     0.15525
  1286.28735	     0.15529
  1287.25159	     0.15531
  1288.21582	     0.15531
  1289.18005	     0.15529
  1290.14429	     0.15526
  1291.10852	     0.15522
  1292.07275	     0.15517
  1293.03699	     0.15509
  1294.00122	     0.15500
  1294.96545	     0.15488
  1295.92969	     0.15473
  1296.89392	     0.15454
  1297.85815	     0.15430
  1298.82239	     0.15401
  1299.78662	     0.15367
  1300.75085	     0.15327
  1301.71509	     0.15283
  1302.67932	     0.15237
  1303.64355	     0.15191
  1304.60779	     0.15147
  1305.57202	     0.15106
  1306.53625	     0.15068
  1307.50049	     0.15035
  1308.46472	     0.15004
  1309.42896	     0.14977
  1310.39319	     0.14953
  1311.35742	     0.14934
  1312.32166	     0.14918
  1313.28589	     0.14907
  1314.25012	     0.14900
  1315.21436	     0.14894
  1316.17859	     0.14889
  1317.14282	     0.14883
  1318.10706	     0.14877
  1319.07129	     0.14870
  1320.03552	     0.14863
  1320.99976	     0.14859
  1321.96399	     0.14856
  1322.92822	     0.14854
  1323.89246	     0.14852
  1324.85669	     0.14846
  1325.82092	     0.14836
  1326.78516	     0.14818
  1327.74939	     0.14794
  1328.71362	     0.14764
  1329.67786	     0.14730
  1330.64209	     0.14693
  1331.60632	     0.14657
  1332.57056	     0.14624
  1333.53479	     0.14596
  1334.49902	     0.14575
  1335.46326	     0.14563
  1336.42749	     0.14560
  1337.39172	     0.14567
  1338.35596	     0.14585
  1339.32019	     0.14610
  1340.28442	     0.14642
  1341.24866	     0.14678
  1342.21289	     0.14718
  1343.17712	     0.14761
  1344.14136	     0.14808
  1345.10559	     0.14861
  1346.06982	     0.14920
  1347.03406	     0.14983
  1347.99829	     0.15052
  1348.96252	     0.15122
  1349.92676	     0.15193
  1350.89099	     0.15262
  1351.85522	     0.15327
  1352.81946	     0.15386
  1353.78369	     0.15437
  1354.74792	     0.15480
  1355.71216	     0.15511
  1356.67639	     0.15530
  1357.64063	     0.15535
  1358.60486	     0.15525
  1359.56909	     0.15497
  1360.53333	     0.15451
  1361.49756	     0.15385
  1362.46179	     0.15300
  1363.42603	     0.15198
  1364.39026	     0.15082
  1365.35449	     0.14955
  1366.31873	     0.14818
  1367.28296	     0.14674
  1368.24719	     0.14520
  1369.21143	     0.14358
  1370.17566	     0.14186
  1371.13989	     0.14007
  1372.10413	     0.13821
  1373.06836	     0.13633
  1374.03259	     0.13445
  1374.99683	     0.13258
  1375.96106	     0.13074
  1376.92529	     0.12894
  1377.88953	     0.12716
  1378.85376	     0.12543
  1379.81799	     0.12373
  1380.78223	     0.12207
  1381.74646	     0.12044
  1382.71069	     0.11882
  1383.67493	     0.11722
  1384.63916	     0.11561
  1385.60339	     0.11403
  1386.56763	     0.11248
  1387.53186	     0.11100
  1388.49609	     0.10961
  1389.46033	     0.10832
  1390.42456	     0.10713
  1391.38879	     0.10605
  1392.35303	     0.10508
  1393.31726	     0.10421
  1394.28149	     0.10344
  1395.24573	     0.10276
  1396.20996	     0.10219
  1397.17419	     0.10171
  1398.13843	     0.10133
  1399.10266	     0.10107
  1400.06689	     0.10096
  1401.03113	     0.10101
  1401.99536	     0.10124
  1402.95959	     0.10162
  1403.92383	     0.10211
  1404.88806	     0.10266
  1405.85229	     0.10321
  1406.81653	     0.10374
  1407.78076	     0.10424
  1408.74500	     0.10472
  1409.70923	     0.10521
  1410.67346	     0.10574
  1411.63770	     0.10631
  1412.60193	     0.10692
  1413.56616	     0.10757
  1414.53040	     0.10830
  1415.49463	     0.10914
  1416.45886	     0.11019
  1417.42310	     0.11152
  1418.38733	     0.11317
  1419.35156	     0.11510
  1420.31580	     0.11721
  1421.28003	     0.11937
  1422.24426	     0.12146
  1423.20850	     0.12343
  1424.17273	     0.12525
  1425.13696	     0.12692
  1426.10120	     0.12846
  1427.06543	     0.12986
  1428.02966	     0.13111
  1428.99390	     0.13217
  1429.95813	     0.13303
  1430.92236	     0.13365
  1431.88660	     0.13402
  1432.85083	     0.13413
  1433.81506	     0.13397
  1434.77930	     0.13357
  1435.74353	     0.13296
  1436.70776	     0.13222
  1437.67200	     0.13140
  1438.63623	     0.13059
  1439.60046	     0.12982
  1440.56470	     0.12912
  1441.52893	     0.12847
  1442.49316	     0.12785
  1443.45740	     0.12725
  1444.42163	     0.12667
  1445.38586	     0.12609
  1446.35010	     0.12553
  1447.31433	     0.12496
  1448.27856	     0.12439
  1449.24280	     0.12380
  1450.20703	     0.12317
  1451.17126	     0.12253
  1452.13550	     0.12191
  1453.09973	     0.12142
  1454.06396	     0.12118
  1455.02820	     0.12133
  1455.99243	     0.12194
  1456.95667	     0.12294
  1457.92090	     0.12412
  1458.88513	     0.12525
  1459.84937	     0.12616
  1460.81360	     0.12682
  1461.77783	     0.12726
  1462.74207	     0.12756
  1463.70630	     0.12778
  1464.67053	     0.12796
  1465.63477	     0.12810
  1466.59900	     0.12821
  1467.56323	     0.12830
  1468.52747	     0.12839
  1469.49170	     0.12855
  1470.45593	     0.12887
  1471.42017	     0.12942
  1472.38440	     0.13023
  1473.34863	     0.13126
  1474.31287	     0.13239
  1475.27710	     0.13348
  1476.24133	     0.13443
  1477.20557	     0.13519
  1478.16980	     0.13577
  1479.13403	     0.13619
  1480.09827	     0.13645
  1481.06250	     0.13655
  1482.02673	     0.13648
  1482.99097	     0.13624
  1483.95520	     0.13580
  1484.91943	     0.13516
  1485.88367	     0.13429
  1486.84790	     0.13316
  1487.81213	     0.13179
  1488.77637	     0.13021
  1489.74060	     0.12850
  1490.70483	     0.12676
  1491.66907	     0.12509
  1492.63330	     0.12350
  1493.59753	     0.12198
  1494.56177	     0.12052
  1495.52600	     0.11905
  1496.49023	     0.11757
  1497.45447	     0.11608
  1498.41870	     0.11462
  1499.38293	     0.11322
  1500.34717	     0.11191
  1501.31140	     0.11066
  1502.27563	     0.10947
  1503.23987	     0.10827
  1504.20410	     0.10699
  1505.16833	     0.10557
  1506.13257	     0.10395
  1507.09680	     0.10215
  1508.06104	     0.10027
  1509.02527	     0.09840
  1509.98950	     0.09663
  1510.95374	     0.09498
  1511.91797	     0.09343
  1512.88220	     0.09197
  1513.84644	     0.09057
  1514.81067	     0.08922
  1515.77490	     0.08789
  1516.73914	     0.08657
  1517.70337	     0.08528
  1518.66760	     0.08406
  1519.63184	     0.08296
  1520.59607	     0.08205
  1521.56030	     0.08134
  1522.52454	     0.08079
  1523.48877	     0.08033
  1524.45300	     0.07987
  1525.41724	     0.07935
  1526.38147	     0.07876
  1527.34570	     0.07814
  1528.30994	     0.07754
  1529.27417	     0.07699
  1530.23840	     0.07651
  1531.20264	     0.07610
  1532.16687	     0.07572
  1533.13110	     0.07535
  1534.09534	     0.07496
  1535.05957	     0.07454
  1536.02380	     0.07414
  1536.98804	     0.07380
  1537.95227	     0.07358
  1538.91650	     0.07353
  1539.88074	     0.07364
  1540.84497	     0.07384
  1541.80920	     0.07401
  1542.77344	     0.07408
  1543.73767	     0.07403
  1544.70190	     0.07388
  1545.66614	     0.07368
  1546.63037	     0.07346
  1547.59460	     0.07323
  1548.55884	     0.07298
  1549.52307	     0.07271
  1550.48730	     0.07237
  1551.45154	     0.07194
  1552.41577	     0.07142
  1553.38000	     0.07084
  1554.34424	     0.07030
  1555.30847	     0.06994
  1556.27271	     0.06997
  1557.23694	     0.07057
  1558.20117	     0.07170
  1559.16541	     0.07312
  1560.12964	     0.07443
  1561.09387	     0.07538
  1562.05811	     0.07591
  1563.02234	     0.07610
  1563.98657	     0.07611
  1564.95081	     0.07606
  1565.91504	     0.07606
  1566.87927	     0.07619
  1567.84351	     0.07643
  1568.80774	     0.07673
  1569.77197	     0.07704
  1570.73621	     0.07730
  1571.70044	     0.07751
  1572.66467	     0.07774
  1573.62891	     0.07805
  1574.59314	     0.07853
  1575.55737	     0.07918
  1576.52161	     0.07995
  1577.48584	     0.08075
  1578.45007	     0.08149
  1579.41431	     0.08213
  1580.37854	     0.08266
  1581.34277	     0.08313
  1582.30701	     0.08357
  1583.27124	     0.08398
  1584.23547	     0.08437
  1585.19971	     0.08472
  1586.16394	     0.08500
  1587.12817	     0.08521
  1588.09241	     0.08536
  1589.05664	     0.08546
  1590.02087	     0.08555
  1590.98511	     0.08564
  1591.94934	     0.08572
  1592.91357	     0.08577
  1593.87781	     0.08575
  1594.84204	     0.08565
  1595.80627	     0.08546
  1596.77051	     0.08520
  1597.73474	     0.08488
  1598.69897	     0.08453
  1599.66321	     0.08417
  1600.62744	     0.08380
  1601.59167	     0.08342
  1602.55591	     0.08302
  1603.52014	     0.08260
  1604.48438	     0.08216
  1605.44861	     0.08169
  1606.41284	     0.08119
  1607.37708	     0.08066
  1608.34131	     0.08008
  1609.30554	     0.07946
  1610.26978	     0.07879
  1611.23401	     0.07810
  1612.19824	     0.07741
  1613.16248	     0.07674
  1614.12671	     0.07612
  1615.09094	     0.07555
  1616.05518	     0.07501
  1617.01941	     0.07445
  1617.98364	     0.07385
  1618.94788	     0.07319
  1619.91211	     0.07250
  1620.87634	     0.07181
  1621.84058	     0.07120
  1622.80481	     0.07071
  1623.76904	     0.07039
  1624.73328	     0.07021
  1625.69751	     0.07012
  1626.66174	     0.07006
  1627.62598	     0.06993
  1628.59021	     0.06970
  1629.55444	     0.06937
  1630.51868	     0.06899
  1631.48291	     0.06863
  1632.44714	     0.06841
  1633.41138	     0.06844
  1634.37561	     0.06877
  1635.33984	     0.06935
  1636.30408	     0.07000
  1637.26831	     0.07053
  1638.23254	     0.07078
  1639.19678	     0.07071
  1640.16101	     0.07037
  1641.12524	     0.06988
  1642.08948	     0.06935
  1643.05371	     0.06888
  1644.01794	     0.06855
  1644.98218	     0.06838
  1645.94641	     0.06835
  1646.91064	     0.06838
  1647.87488	     0.06844
  1648.83911	     0.06855
  1649.80334	     0.06880
  1650.76758	     0.06932
  1651.73181	     0.07015
  1652.69604	     0.07119
  1653.66028	     0.07222
  1654.62451	     0.07303
  1655.58875	     0.07350
  1656.55298	     0.07364
  1657.51721	     0.07358
  1658.48145	     0.07344
  1659.44568	     0.07336
  1660.40991	     0.07341
  1661.37415	     0.07360
  1662.33838	     0.07390
  1663.30261	     0.07422
  1664.26685	     0.07451
  1665.23108	     0.07474
  1666.19531	     0.07493
  1667.15955	     0.07517
  1668.12378	     0.07555
  1669.08801	     0.07614
  1670.05225	     0.07697
  1671.01648	     0.07799
  1671.98071	     0.07909
  1672.94495	     0.08019
  1673.90918	     0.08120
  1674.87341	     0.08208
  1675.83765	     0.08281
  1676.80188	     0.08338
  1677.76611	     0.08380
  1678.73035	     0.08411
  1679.69458	     0.08442
  1680.65881	     0.08488
  1681.62305	     0.08573
  1682.58728	     0.08717
  1683.55151	     0.08928
  1684.51575	     0.09189
  1685.47998	     0.09465
  1686.44421	     0.09718
  1687.40845	     0.09926
  1688.37268	     0.10084
  1689.33691	     0.10203
  1690.30115	     0.10297
  1691.26538	     0.10383
  1692.22961	     0.10473
  1693.19385	     0.10582
  1694.15808	     0.10724
  1695.12231	     0.10919
  1696.08655	     0.11189
  1697.05078	     0.11560
  1698.01501	     0.12044
  1698.97925	     0.12633
  1699.94348	     0.13294
  1700.90771	     0.13978
  1701.87195	     0.14647
  1702.83618	     0.15278
  1703.80042	     0.15866
  1704.76465	     0.16420
  1705.72888	     0.16945
  1706.69312	     0.17446
  1707.65735	     0.17921
  1708.62158	     0.18367
  1709.58582	     0.18783
  1710.55005	     0.19174
  1711.51428	     0.19552
  1712.47852	     0.19936
  1713.44275	     0.20346
  1714.40698	     0.20797
  1715.37122	     0.21293
  1716.33545	     0.21816
  1717.29968	     0.22342
  1718.26392	     0.22844
  1719.22815	     0.23315
  1720.19238	     0.23758
  1721.15662	     0.24185
  1722.12085	     0.24602
  1723.08508	     0.25011
  1724.04932	     0.25409
  1725.01355	     0.25791
  1725.97778	     0.26156
  1726.94202	     0.26504
  1727.90625	     0.26840
  1728.87048	     0.27168
  1729.83472	     0.27489
  1730.79895	     0.27795
  1731.76318	     0.28077
  1732.72742	     0.28322
  1733.69165	     0.28528
  1734.65588	     0.28702
  1735.62012	     0.28860
  1736.58435	     0.29019
  1737.54858	     0.29191
  1738.51282	     0.29378
  1739.47705	     0.29583
  1740.44128	     0.29804
  1741.40552	     0.30041
  1742.36975	     0.30299
  1743.33398	     0.30582
  1744.29822	     0.30897
  1745.26245	     0.31248
  1746.22668	     0.31637
  1747.19092	     0.32066
  1748.15515	     0.32530
  1749.11938	     0.33025
  1750.08362	     0.33539
  1751.04785	     0.34060
  1752.01208	     0.34573
  1752.97632	     0.35067
  1753.94055	     0.35532
  1754.90479	     0.35961
  1755.86902	     0.36355
  1756.83325	     0.36715
  1757.79749	     0.37049
  1758.76172	     0.37365
  1759.72595	     0.37666
  1760.69019	     0.37956
  1761.65442	     0.38231
  1762.61865	     0.38488
  1763.58289	     0.38724
  1764.54712	     0.38937
  1765.51135	     0.39129
  1766.47559	     0.39298
  1767.43982	     0.39446
  1768.40405	     0.39569
  1769.36829	     0.39663
  1770.33252	     0.39728
  1771.29675	     0.39770
  1772.26099	     0.39802
  1773.22522	     0.39838
  1774.18945	     0.39890
  1775.15369	     0.39961
  1776.11792	     0.40044
  1777.08215	     0.40132
  1778.04639	     0.40214
  1779.01062	     0.40286
  1779.97485	     0.40349
  1780.93909	     0.40408
  1781.90332	     0.40469
  1782.86755	     0.40537
  1783.83179	     0.40612
  1784.79602	     0.40688
  1785.76025	     0.40760
  1786.72449	     0.40822
  1787.68872	     0.40872
  1788.65295	     0.40912
  1789.61719	     0.40948
  1790.58142	     0.40985
  1791.54565	     0.41026
  1792.50989	     0.41070
  1793.47412	     0.41115
  1794.43835	     0.41155
  1795.40259	     0.41188
  1796.36682	     0.41212
  1797.33105	     0.41228
  1798.29529	     0.41239
  1799.25952	     0.41247
  1800.22375	     0.41257
  1801.18799	     0.41273
  1802.15222	     0.41298
  1803.11646	     0.41332
  1804.08069	     0.41375
  1805.04492	     0.41421
  1806.00916	     0.41462
  1806.97339	     0.41491
  1807.93762	     0.41502
  1808.90186	     0.41497
  1809.86609	     0.41479
  1810.83032	     0.41461
  1811.79456	     0.41452
  1812.75879	     0.41460
  1813.72302	     0.41485
  1814.68726	     0.41522
  1815.65149	     0.41565
  1816.61572	     0.41607
  1817.57996	     0.41644
  1818.54419	     0.41678
  1819.50842	     0.41708
  1820.47266	     0.41736
  1821.43689	     0.41762
  1822.40112	     0.41780
  1823.36536	     0.41787
  1824.32959	     0.41779
  1825.29382	     0.41760
  1826.25806	     0.41736
  1827.22229	     0.41716
  1828.18652	     0.41707
  1829.15076	     0.41712
  1830.11499	     0.41728
  1831.07922	     0.41749
  1832.04346	     0.41770
  1833.00769	     0.41789
  1833.97192	     0.41807
  1834.93616	     0.41829
  1835.90039	     0.41855
  1836.86462	     0.41887
  1837.82886	     0.41919
  1838.79309	     0.41945
  1839.75732	     0.41959
  1840.72156	     0.41957
  1841.68579	     0.41940
  1842.65002	     0.41915
  1843.61426	     0.41890
  1844.57849	     0.41872
  1845.54272	     0.41867
  1846.50696	     0.41875
  1847.47119	     0.41892
  1848.43542	     0.41916
  1849.39966	     0.41943
  1850.36389	     0.41973
  1851.32813	     0.42003
  1852.29236	     0.42031
  1853.25659	     0.42055
  1854.22083	     0.42073
  1855.18506	     0.42084
  1856.14929	     0.42091
  1857.11353	     0.42098
  1858.07776	     0.42109
  1859.04199	     0.42127
  1860.00623	     0.42149
  1860.97046	     0.42172
  1861.93469	     0.42187
  1862.89893	     0.42189
  1863.86316	     0.42173
  1864.82739	     0.42139
  1865.79163	     0.42092
  1866.75586	     0.42040
  1867.72009	     0.41991
  1868.68433	     0.41954
  1869.64856	     0.41934
  1870.61279	     0.41929
  1871.57703	     0.41938
  1872.54126	     0.41955
  1873.50549	     0.41976
  1874.46973	     0.41997
  1875.43396	     0.42014
  1876.39819	     0.42025
  1877.36243	     0.42030
  1878.32666	     0.42032
  1879.29089	     0.42033
  1880.25513	     0.42038
  1881.21936	     0.42048
  1882.18359	     0.42062
  1883.14783	     0.42077
  1884.11206	     0.42087
  1885.07629	     0.42088
  1886.04053	     0.42079
  1887.00476	     0.42062
  1887.96899	     0.42043
  1888.93323	     0.42029
  1889.89746	     0.42023
  1890.86169	     0.42027
  1891.82593	     0.42038
  1892.79016	     0.42052
  1893.75439	     0.42065
  1894.71863	     0.42077
  1895.68286	     0.42084
  1896.64709	     0.42090
  1897.61133	     0.42092
  1898.57556	     0.42092
  1899.53979	     0.42089
  1900.50403	     0.42081
  1901.46826	     0.42071
  1902.43250	     0.42060
  1903.39673	     0.42053
  1904.36096	     0.42053
  1905.32520	     0.42059
  1906.28943	     0.42073
  1907.25366	     0.42090
  1908.21790	     0.42106
  1909.18213	     0.42120
  1910.14636	     0.42129
  1911.11060	     0.42132
  1912.07483	     0.42128
  1913.03906	     0.42117
  1914.00330	     0.42098
  1914.96753	     0.42071
  1915.93176	     0.42035
  1916.89600	     0.41995
  1917.86023	     0.41957
  1918.82446	     0.41925
  1919.78870	     0.41905
  1920.75293	     0.41898
  1921.71716	     0.41901
  1922.68140	     0.41911
  1923.64563	     0.41924
  1924.60986	     0.41937
  1925.57410	     0.41948
  1926.53833	     0.41956
  1927.50256	     0.41960
  1928.46680	     0.41958
  1929.43103	     0.41947
  1930.39526	     0.41928
  1931.35950	     0.41900
  1932.32373	     0.41868
  1933.28796	     0.41836
  1934.25220	     0.41809
  1935.21643	     0.41788
  1936.18066	     0.41773
  1937.14490	     0.41760
  1938.10913	     0.41747
  1939.07336	     0.41732
  1940.03760	     0.41719
  1941.00183	     0.41713
  1941.96606	     0.41720
  1942.93030	     0.41742
  1943.89453	     0.41775
  1944.85876	     0.41814
  1945.82300	     0.41850
  1946.78723	     0.41878
  1947.75146	     0.41898
  1948.71570	     0.41912
  1949.67993	     0.41923
  1950.64417	     0.41934
  1951.60840	     0.41939
  1952.57263	     0.41930
  1953.53687	     0.41897
  1954.50110	     0.41830
  1955.46533	     0.41729
  1956.42957	     0.41605
  1957.39380	     0.41478
  1958.35803	     0.41376
  1959.32227	     0.41317
  1960.28650	     0.41306
  1961.25073	     0.41330
  1962.21497	     0.41368
  1963.17920	     0.41405
  1964.14343	     0.41430
  1965.10767	     0.41439
  1966.07190	     0.41437
  1967.03613	     0.41428
  1968.00037	     0.41418
  1968.96460	     0.41407
  1969.92883	     0.41397
  1970.89307	     0.41386
  1971.85730	     0.41374
  1972.82153	     0.41362
  1973.78577	     0.41351
  1974.75000	     0.41342
  1975.71423	     0.41335
  1976.67847	     0.41329
  1977.64270	     0.41321
  1978.60693	     0.41310
  1979.57117	     0.41298
  1980.53540	     0.41286
  1981.49963	     0.41279
  1982.46387	     0.41279
  1983.42810	     0.41284
  1984.39233	     0.41294
  1985.35657	     0.41303
  1986.32080	     0.41309
  1987.28503	     0.41308
  1988.24927	     0.41302
  1989.21350	     0.41292
  1990.17773	     0.41280
  1991.14197	     0.41268
  1992.10620	     0.41257
  1993.07043	     0.41248
  1994.03467	     0.41239
  1994.99890	     0.41230
  1995.96313	     0.41223
  1996.92737	     0.41218
  1997.89160	     0.41214
  1998.85583	     0.41213
  1999.82007	     0.41212
  2000.78430	     0.41212
  2001.74854	     0.41213
  2002.71277	     0.41215
  2003.67700	     0.41221
  2004.64124	     0.41229
  2005.60547	     0.41237
  2006.56970	     0.41241
  2007.53394	     0.41238
  2008.49817	     0.41225
  2009.46240	     0.41204
  2010.42664	     0.41176
  2011.39087	     0.41146
  2012.35510	     0.41116
  2013.31934	     0.41089
  2014.28357	     0.41063
  2015.24780	     0.41035
  2016.21204	     0.41006
  2017.17627	     0.40975
  2018.14050	     0.40949
  2019.10474	     0.40933
  2020.06897	     0.40930
  2021.03320	     0.40940
  2021.99744	     0.40959
  2022.96167	     0.40977
  2023.92590	     0.40985
  2024.89014	     0.40975
  2025.85437	     0.40944
  2026.81860	     0.40894
  2027.78284	     0.40834
  2028.74707	     0.40772
  2029.71130	     0.40720
  2030.67554	     0.40683
  2031.63977	     0.40663
  2032.60400	     0.40660
  2033.56824	     0.40672
  2034.53247	     0.40694
  2035.49670	     0.40722
  2036.46094	     0.40752
  2037.42517	     0.40778
  2038.38940	     0.40795
  2039.35364	     0.40798
  2040.31787	     0.40788
  2041.28210	     0.40765
  2042.24634	     0.40735
  2043.21057	     0.40703
  2044.17480	     0.40675
  2045.13904	     0.40654
  2046.10327	     0.40641
  2047.06750	     0.40634
  2048.03174	     0.40630
  2048.99609	     0.40626
  2049.96021	     0.40618
  2050.92432	     0.40604
  2051.88867	     0.40584
  2052.85303	     0.40559
  2053.81714	     0.40531
  2054.78125	     0.40503
  2055.74561	     0.40477
  2056.70996	     0.40457
  2057.67407	     0.40441
  2058.63818	     0.40429
  2059.60254	     0.40418
  2060.56689	     0.40402
  2061.53101	     0.40379
  2062.49512	     0.40349
  2063.45947	     0.40312
  2064.42383	     0.40274
  2065.38794	     0.40239
  2066.35205	     0.40209
  2067.31641	     0.40187
  2068.28076	     0.40168
  2069.24487	     0.40151
  2070.20898	     0.40131
  2071.17334	     0.40106
  2072.13770	     0.40076
  2073.10181	     0.40045
  2074.06592	     0.40017
  2075.03027	     0.39995
  2075.99463	     0.39981
  2076.95874	     0.39977
  2077.92285	     0.39979
  2078.88721	     0.39985
  2079.85156	     0.39988
  2080.81567	     0.39985
  2081.77979	     0.39971
  2082.74414	     0.39945
  2083.70850	     0.39905
  2084.67261	     0.39856
  2085.63672	     0.39804
  2086.60107	     0.39757
  2087.56543	     0.39722
  2088.52954	     0.39704
  2089.49365	     0.39703
  2090.45801	     0.39718
  2091.42236	     0.39742
  2092.38647	     0.39770
  2093.35059	     0.39795
  2094.31494	     0.39816
  2095.27930	     0.39832
  2096.24341	     0.39843
  2097.20752	     0.39849
  2098.17188	     0.39850
  2099.13623	     0.39843
  2100.10034	     0.39827
  2101.06445	     0.39803
  2102.02881	     0.39770
  2102.99316	     0.39733
  2103.95728	     0.39695
  2104.92139	     0.39657
  2105.88574	     0.39619
  2106.85010	     0.39578
  2107.81421	     0.39533
  2108.77832	     0.39483
  2109.74268	     0.39428
  2110.70703	     0.39375
  2111.67114	     0.39328
  2112.63525	     0.39293
  2113.59961	     0.39275
  2114.56396	     0.39272
  2115.52808	     0.39285
  2116.49219	     0.39308
  2117.45654	     0.39337
  2118.42090	     0.39368
  2119.38501	     0.39397
  2120.34912	     0.39421
  2121.31348	     0.39436
  2122.27783	     0.39439
  2123.24194	     0.39432
  2124.20605	     0.39417
  2125.17041	     0.39397
  2126.13477	     0.39380
  2127.09888	     0.39370
  2128.06299	     0.39370
  2129.02734	     0.39377
  2129.99170	     0.39388
  2130.95581	     0.39396
  2131.91992	     0.39397
  2132.88428	     0.39389
  2133.84863	     0.39375
  2134.81274	     0.39360
  2135.77686	     0.39351
  2136.74121	     0.39351
  2137.70557	     0.39362
  2138.66968	     0.39381
  2139.63379	     0.39404
  2140.59814	     0.39425
  2141.56250	     0.39441
  2142.52661	     0.39449
  2143.49072	     0.39449
  2144.45508	     0.39441
  2145.41943	     0.39428
  2146.38354	     0.39413
  2147.34766	     0.39398
  2148.31201	     0.39387
  2149.27637	     0.39383
  2150.24048	     0.39386
  2151.20459	     0.39396
  2152.16895	     0.39410
  2153.13330	     0.39424
  2154.09741	     0.39435
  2155.06152	     0.39439
  2156.02588	     0.39436
  2156.99023	     0.39428
  2157.95435	     0.39419
  2158.91846	     0.39413
  2159.88281	     0.39414
  2160.84717	     0.39426
  2161.81128	     0.39448
  2162.77539	     0.39481
  2163.73975	     0.39523
  2164.70410	     0.39571
  2165.66821	     0.39623
  2166.63232	     0.39674
  2167.59668	     0.39720
  2168.56104	     0.39759
  2169.52515	     0.39788
  2170.48926	     0.39810
  2171.45361	     0.39827
  2172.41797	     0.39841
  2173.38208	     0.39857
  2174.34619	     0.39873
  2175.31055	     0.39890
  2176.27490	     0.39903
  2177.23901	     0.39910
  2178.20313	     0.39910
  2179.16748	     0.39904
  2180.13184	     0.39896
  2181.09595	     0.39889
  2182.06006	     0.39888
  2183.02441	     0.39895
  2183.98877	     0.39908
  2184.95288	     0.39926
  2185.91699	     0.39944
  2186.88135	     0.39962
  2187.84570	     0.39978
  2188.80981	     0.39993
  2189.77393	     0.40008
  2190.73828	     0.40024
  2191.70264	     0.40042
  2192.66675	     0.40060
  2193.63086	     0.40078
  2194.59521	     0.40094
  2195.55957	     0.40108
  2196.52368	     0.40121
  2197.48779	     0.40136
  2198.45215	     0.40154
  2199.41650	     0.40176
  2200.38062	     0.40203
  2201.34473	     0.40233
  2202.30908	     0.40264
  2203.27344	     0.40293
  2204.23755	     0.40318
  2205.20166	     0.40338
  2206.16602	     0.40352
  2207.13037	     0.40362
  2208.09448	     0.40369
  2209.05859	     0.40378
  2210.02295	     0.40389
  2210.98730	     0.40406
  2211.95142	     0.40427
  2212.91553	     0.40452
  2213.87988	     0.40479
  2214.84424	     0.40507
  2215.80835	     0.40535
  2216.77246	     0.40565
  2217.73682	     0.40598
  2218.70117	     0.40635
  2219.66528	     0.40676
  2220.62939	     0.40721
  2221.59375	     0.40766
  2222.55811	     0.40808
  2223.52222	     0.40846
  2224.48633	     0.40878
  2225.45068	     0.40905
  2226.41504	     0.40929
  2227.37915	     0.40952
  2228.34326	     0.40973
  2229.30762	     0.40994
  2230.27197	     0.41014
  2231.23608	     0.41032
  2232.20020	     0.41047
  2233.16455	     0.41061
  2234.12891	     0.41072
  2235.09302	     0.41081
  2236.05713	     0.41088
  2237.02148	     0.41093
  2237.98584	     0.41094
  2238.94995	     0.41094
  2239.91406	     0.41093
  2240.87842	     0.41093
  2241.84277	     0.41096
  2242.80688	     0.41104
  2243.77100	     0.41116
  2244.73535	     0.41130
  2245.69971	     0.41148
  2246.66382	     0.41167
  2247.62793	     0.41188
  2248.59229	     0.41211
  2249.55664	     0.41237
  2250.52075	     0.41266
  2251.48486	     0.41296
  2252.44922	     0.41326
  2253.41357	     0.41355
  2254.37769	     0.41382
  2255.34180	     0.41409
  2256.30615	     0.41437
  2257.27051	     0.41466
  2258.23462	     0.41495
  2259.19873	     0.41523
  2260.16309	     0.41548
  2261.12744	     0.41566
  2262.09155	     0.41578
  2263.05566	     0.41582
  2264.02002	     0.41582
  2264.98438	     0.41577
  2265.94849	     0.41569
  2266.91260	     0.41559
  2267.87695	     0.41547
  2268.84131	     0.41532
  2269.80542	     0.41518
  2270.76953	     0.41507
  2271.73389	     0.41502
  2272.69824	     0.41505
  2273.66235	     0.41515
  2274.62646	     0.41528
  2275.59082	     0.41539
  2276.55518	     0.41544
  2277.51929	     0.41541
  2278.48340	     0.41529
  2279.44775	     0.41514
  2280.41211	     0.41498
  2281.37622	     0.41487
  2282.34033	     0.41484
  2283.30469	     0.41488
  2284.26904	     0.41496
  2285.23315	     0.41506
  2286.19727	     0.41516
  2287.16162	     0.41524
  2288.12598	     0.41531
  2289.09009	     0.41537
  2290.05420	     0.41543
  2291.01855	     0.41549
  2291.98291	     0.41556
  2292.94702	     0.41565
  2293.91113	     0.41576
  2294.87549	     0.41590
  2295.83984	     0.41606
  2296.80396	     0.41624
  2297.76807	     0.41643
  2298.73242	     0.41663
  2299.69678	     0.41683
  2300.66089	     0.41705
  2301.62500	     0.41732
  2302.58936	     0.41766
  2303.55371	     0.41808
  2304.51782	     0.41856
  2305.48193	     0.41905
  2306.44629	     0.41948
  2307.41064	     0.41978
  2308.37476	     0.41991
  2309.33887	     0.41987
  2310.30322	     0.41969
  2311.26758	     0.41945
  2312.23169	     0.41924
  2313.19580	     0.41911
  2314.16016	     0.41909
  2315.12451	     0.41919
  2316.08862	     0.41937
  2317.05273	     0.41960
  2318.01709	     0.41983
  2318.98145	     0.42003
  2319.94556	     0.42015
  2320.90967	     0.42019
  2321.87402	     0.42014
  2322.83838	     0.42002
  2323.80249	     0.41989
  2324.76660	     0.41976
  2325.73096	     0.41967
  2326.69531	     0.41957
  2327.65942	     0.41940
  2328.62354	     0.41907
  2329.58789	     0.41853
  2330.55225	     0.41780
  2331.51636	     0.41699
  2332.48047	     0.41627
  2333.44482	     0.41584
  2334.40918	     0.41581
  2335.37329	     0.41618
  2336.33740	     0.41682
  2337.30176	     0.41749
  2338.26611	     0.41798
  2339.23022	     0.41818
  2340.19434	     0.41813
  2341.15869	     0.41802
  2342.12305	     0.41809
  2343.08716	     0.41850
  2344.05127	     0.41927
  2345.01563	     0.42027
  2345.97998	     0.42125
  2346.94409	     0.42197
  2347.90820	     0.42223
  2348.87256	     0.42198
  2349.83691	     0.42126
  2350.80103	     0.42021
  2351.76514	     0.41903
  2352.72949	     0.41793
  2353.69385	     0.41707
  2354.65796	     0.41653
  2355.62207	     0.41624
  2356.58643	     0.41606
  2357.55078	     0.41580
  2358.51489	     0.41533
  2359.47900	     0.41460
  2360.44336	     0.41368
  2361.40771	     0.41267
  2362.37183	     0.41171
  2363.33594	     0.41088
  2364.30029	     0.41021
  2365.26465	     0.40968
  2366.22876	     0.40925
  2367.19287	     0.40890
  2368.15723	     0.40864
  2369.12158	     0.40849
  2370.08569	     0.40848
  2371.04980	     0.40863
  2372.01416	     0.40892
  2372.97852	     0.40930
  2373.94263	     0.40971
  2374.90674	     0.41011
  2375.87109	     0.41044
  2376.83545	     0.41070
  2377.79956	     0.41088
  2378.76367	     0.41099
  2379.72803	     0.41103
  2380.69238	     0.41098
  2381.65649	     0.41082
  2382.62061	     0.41054
  2383.58496	     0.41013
  2384.54932	     0.40964
  2385.51343	     0.40911
  2386.47754	     0.40862
  2387.44189	     0.40823
  2388.40625	     0.40798
  2389.37036	     0.40786
  2390.33447	     0.40784
  2391.29883	     0.40783
  2392.26318	     0.40775
  2393.22729	     0.40754
  2394.19141	     0.40719
  2395.15576	     0.40673
  2396.12012	     0.40620
  2397.08423	     0.40568
  2398.04834	     0.40523
  2399.01270	     0.40490
  2399.97705	     0.40469
  2400.94116	     0.40458
  2401.90527	     0.40453
  2402.86963	     0.40451
  2403.83398	     0.40447
  2404.79810	     0.40437
  2405.76221	     0.40420
  2406.72656	     0.40395
  2407.69092	     0.40362
  2408.65503	     0.40324
  2409.61914	     0.40283
  2410.58350	     0.40240
  2411.54785	     0.40198
  2412.51196	     0.40158
  2413.47607	     0.40121
  2414.44043	     0.40089
  2415.40479	     0.40063
  2416.36890	     0.40041
  2417.33301	     0.40024
  2418.29736	     0.40006
  2419.26172	     0.39984
  2420.22583	     0.39950
  2421.18994	     0.39902
  2422.15430	     0.39837
  2423.11865	     0.39758
  2424.08276	     0.39672
  2425.04688	     0.39586
  2426.01123	     0.39508
  2426.97559	     0.39446
  2427.93970	     0.39401
  2428.90381	     0.39374
  2429.86816	     0.39361
  2430.83252	     0.39356
  2431.79663	     0.39356
  2432.76074	     0.39353
  2433.72510	     0.39343
  2434.68945	     0.39323
  2435.65356	     0.39290
  2436.61768	     0.39244
  2437.58203	     0.39188
  2438.54639	     0.39128
  2439.51050	     0.39069
  2440.47461	     0.39020
  2441.43896	     0.38984
  2442.40332	     0.38965
  2443.36743	     0.38958
  2444.33154	     0.38960
  2445.29590	     0.38966
  2446.26025	     0.38972
  2447.22437	     0.38976
  2448.18848	     0.38980
  2449.15283	     0.38985
  2450.11719	     0.38993
  2451.08130	     0.39001
  2452.04541	     0.39008
  2453.00977	     0.39010
  2453.97412	     0.39005
  2454.93823	     0.38995
  2455.90234	     0.38984
  2456.86670	     0.38978
  2457.83105	     0.38982
  2458.79517	     0.38996
  2459.75928	     0.39019
  2460.72363	     0.39043
  2461.68799	     0.39062
  2462.65210	     0.39067
  2463.61621	     0.39056
  2464.58057	     0.39028
  2465.54492	     0.38986
  2466.50903	     0.38935
  2467.47314	     0.38878
  2468.43750	     0.38818
  2469.40186	     0.38759
  2470.36597	     0.38700
  2471.33008	     0.38644
  2472.29443	     0.38592
  2473.25879	     0.38544
  2474.22290	     0.38499
  2475.18701	     0.38457
  2476.15137	     0.38416
  2477.11572	     0.38374
  2478.07983	     0.38331
  2479.04395	     0.38292
  2480.00830	     0.38260
  2480.97266	     0.38240
  2481.93677	     0.38235
  2482.90088	     0.38245
  2483.86523	     0.38266
  2484.82959	     0.38289
  2485.79370	     0.38306
  2486.75781	     0.38310
  2487.72217	     0.38295
  2488.68652	     0.38261
  2489.65063	     0.38212
  2490.61475	     0.38153
  2491.57910	     0.38093
  2492.54346	     0.38036
  2493.50757	     0.37986
  2494.47168	     0.37942
  2495.43604	     0.37903
  2496.40039	     0.37864
  2497.36450	     0.37823
  2498.32861	     0.37776
  2499.29297	     0.37725
  2500.25732	     0.37673
  2501.22144	     0.37624
  2502.18555	     0.37582
  2503.14990	     0.37550
  2504.11426	     0.37528
  2505.07837	     0.37512
  2506.04248	     0.37497
  2507.00684	     0.37476
  2507.97119	     0.37446
  2508.93530	     0.37402
  2509.89941	     0.37345
  2510.86377	     0.37278
  2511.82813	     0.37205
  2512.79224	     0.37128
  2513.75635	     0.37048
  2514.72070	     0.36967
  2515.68506	     0.36883
  2516.64917	     0.36795
  2517.61328	     0.36705
  2518.57764	     0.36613
  2519.54199	     0.36521
  2520.50610	     0.36432
  2521.47021	     0.36346
  2522.43457	     0.36261
  2523.39893	     0.36179
  2524.36304	     0.36099
  2525.32715	     0.36024
  2526.29150	     0.35956
  2527.25586	     0.35901
  2528.21997	     0.35864
  2529.18408	     0.35846
  2530.14844	     0.35845
  2531.11279	     0.35856
  2532.07690	     0.35870
  2533.04102	     0.35878
  2534.00537	     0.35873
  2534.96973	     0.35850
  2535.93384	     0.35810
  2536.89795	     0.35758
  2537.86230	     0.35702
  2538.82666	     0.35651
  2539.79077	     0.35612
  2540.75488	     0.35587
  2541.71924	     0.35577
  2542.68359	     0.35577
  2543.64771	     0.35579
  2544.61182	     0.35574
  2545.57617	     0.35556
  2546.54053	     0.35519
  2547.50464	     0.35464
  2548.46875	     0.35396
  2549.43311	     0.35320
  2550.39746	     0.35245
  2551.36157	     0.35177
  2552.32568	     0.35122
  2553.29004	     0.35078
  2554.25439	     0.35044
  2555.21851	     0.35015
  2556.18262	     0.34986
  2557.14697	     0.34953
  2558.11133	     0.34915
  2559.07544	     0.34872
  2560.03955	     0.34825
  2561.00391	     0.34775
  2561.96826	     0.34723
  2562.93237	     0.34671
  2563.89648	     0.34620
  2564.86084	     0.34573
  2565.82520	     0.34534
  2566.78931	     0.34506
  2567.75342	     0.34493
  2568.71777	     0.34494
  2569.68213	     0.34503
  2570.64624	     0.34514
  2571.61035	     0.34520
  2572.57471	     0.34514
  2573.53906	     0.34494
  2574.50317	     0.34464
  2575.46729	     0.34430
  2576.43164	     0.34402
  2577.39600	     0.34386
  2578.36011	     0.34386
  2579.32422	     0.34399
  2580.28857	     0.34419
  2581.25293	     0.34436
  2582.21704	     0.34438
  2583.18115	     0.34418
  2584.14551	     0.34372
  2585.10986	     0.34300
  2586.07397	     0.34209
  2587.03809	     0.34107
  2588.00244	     0.34006
  2588.96680	     0.33915
  2589.93091	     0.33844
  2590.89502	     0.33798
  2591.85938	     0.33776
  2592.82373	     0.33773
  2593.78784	     0.33781
  2594.75195	     0.33789
  2595.71631	     0.33788
  2596.68066	     0.33772
  2597.64478	     0.33741
  2598.60889	     0.33699
  2599.57324	     0.33653
  2600.53760	     0.33608
  2601.50171	     0.33568
  2602.46582	     0.33532
  2603.43018	     0.33497
  2604.39453	     0.33459
  2605.35864	     0.33416
  2606.32275	     0.33367
  2607.28711	     0.33317
  2608.25146	     0.33270
  2609.21558	     0.33231
  2610.17969	     0.33201
  2611.14404	     0.33176
  2612.10840	     0.33152
  2613.07251	     0.33123
  2614.03662	     0.33084
  2615.00098	     0.33034
  2615.96533	     0.32976
  2616.92944	     0.32914
  2617.89355	     0.32853
  2618.85791	     0.32799
  2619.82227	     0.32757
  2620.78638	     0.32727
  2621.75049	     0.32709
  2622.71484	     0.32703
  2623.67920	     0.32706
  2624.64331	     0.32714
  2625.60742	     0.32723
  2626.57178	     0.32729
  2627.53613	     0.32730
  2628.50024	     0.32725
  2629.46436	     0.32713
  2630.42871	     0.32696
  2631.39307	     0.32675
  2632.35718	     0.32650
  2633.32129	     0.32620
  2634.28564	     0.32585
  2635.25000	     0.32543
  2636.21411	     0.32496
  2637.17822	     0.32447
  2638.14258	     0.32399
  2639.10693	     0.32357
  2640.07104	     0.32323
  2641.03516	     0.32295
  2641.99951	     0.32270
  2642.96387	     0.32244
  2643.92798	     0.32213
  2644.89209	     0.32178
  2645.85645	     0.32145
  2646.82080	     0.32120
  2647.78491	     0.32111
  2648.74902	     0.32119
  2649.71338	     0.32143
  2650.67773	     0.32176
  2651.64185	     0.32208
  2652.60596	     0.32228
  2653.57031	     0.32229
  2654.53467	     0.32209
  2655.49878	     0.32169
  2656.46289	     0.32113
  2657.42725	     0.32046
  2658.39160	     0.31971
  2659.35571	     0.31890
  2660.31982	     0.31804
  2661.28418	     0.31714
  2662.24854	     0.31623
  2663.21265	     0.31532
  2664.17676	     0.31447
  2665.14111	     0.31369
  2666.10547	     0.31302
  2667.06958	     0.31245
  2668.03369	     0.31198
  2668.99805	     0.31157
  2669.96240	     0.31118
  2670.92651	     0.31077
  2671.89063	     0.31031
  2672.85498	     0.30977
  2673.81934	     0.30918
  2674.78345	     0.30855
  2675.74756	     0.30793
  2676.71191	     0.30738
  2677.67627	     0.30693
  2678.64038	     0.30662
  2679.60449	     0.30643
  2680.56885	     0.30631
  2681.53320	     0.30622
  2682.49731	     0.30610
  2683.46143	     0.30591
  2684.42578	     0.30568
  2685.39014	     0.30541
  2686.35425	     0.30517
  2687.31836	     0.30499
  2688.28271	     0.30490
  2689.24707	     0.30491
  2690.21118	     0.30496
  2691.17529	     0.30503
  2692.13965	     0.30504
  2693.10400	     0.30496
  2694.06812	     0.30475
  2695.03223	     0.30440
  2695.99658	     0.30391
  2696.96094	     0.30328
  2697.92505	     0.30254
  2698.88916	     0.30168
  2699.85352	     0.30073
  2700.81787	     0.29970
  2701.78198	     0.29858
  2702.74609	     0.29741
  2703.71045	     0.29622
  2704.67480	     0.29503
  2705.63892	     0.29392
  2706.60303	     0.29292
  2707.56738	     0.29209
  2708.53174	     0.29141
  2709.49585	     0.29084
  2710.45996	     0.29031
  2711.42432	     0.28971
  2712.38867	     0.28897
  2713.35278	     0.28805
  2714.31689	     0.28698
  2715.28125	     0.28585
  2716.24561	     0.28478
  2717.20972	     0.28386
  2718.17383	     0.28316
  2719.13818	     0.28269
  2720.10254	     0.28238
  2721.06665	     0.28215
  2722.03076	     0.28192
  2722.99512	     0.28163
  2723.95947	     0.28128
  2724.92358	     0.28087
  2725.88770	     0.28043
  2726.85205	     0.27994
  2727.81641	     0.27939
  2728.78052	     0.27872
  2729.74463	     0.27791
  2730.70898	     0.27695
  2731.67334	     0.27591
  2732.63745	     0.27487
  2733.60156	     0.27395
  2734.56592	     0.27323
  2735.53027	     0.27274
  2736.49438	     0.27242
  2737.45850	     0.27218
  2738.42285	     0.27189
  2739.38721	     0.27142
  2740.35132	     0.27070
  2741.31543	     0.26971
  2742.27979	     0.26851
  2743.24414	     0.26720
  2744.20825	     0.26590
  2745.17236	     0.26472
  2746.13672	     0.26374
  2747.10107	     0.26300
  2748.06519	     0.26248
  2749.02930	     0.26214
  2749.99365	     0.26191
  2750.95801	     0.26172
  2751.92212	     0.26148
  2752.88623	     0.26115
  2753.85059	     0.26072
  2754.81494	     0.26020
  2755.77905	     0.25964
  2756.74316	     0.25910
  2757.70752	     0.25862
  2758.67188	     0.25823
  2759.63599	     0.25793
  2760.60010	     0.25765
  2761.56445	     0.25736
  2762.52881	     0.25699
  2763.49292	     0.25653
  2764.45703	     0.25595
  2765.42139	     0.25529
  2766.38574	     0.25457
  2767.34985	     0.25379
  2768.31396	     0.25296
  2769.27832	     0.25206
  2770.24268	     0.25107
  2771.20679	     0.24998
  2772.17090	     0.24885
  2773.13525	     0.24775
  2774.09961	     0.24680
  2775.06372	     0.24610
  2776.02783	     0.24571
  2776.99219	     0.24562
  2777.95654	     0.24575
  2778.92065	     0.24596
  2779.88477	     0.24607
  2780.84912	     0.24595
  2781.81348	     0.24551
  2782.77759	     0.24474
  2783.74170	     0.24369
  2784.70605	     0.24247
  2785.67041	     0.24120
  2786.63452	     0.23997
  2787.59863	     0.23884
  2788.56299	     0.23783
  2789.52734	     0.23693
  2790.49146	     0.23610
  2791.45557	     0.23532
  2792.41992	     0.23455
  2793.38428	     0.23377
  2794.34839	     0.23299
  2795.31250	     0.23224
  2796.27686	     0.23156
  2797.24121	     0.23102
  2798.20532	     0.23070
  2799.16943	     0.23061
  2800.13379	     0.23075
  2801.09814	     0.23105
  2802.06226	     0.23138
  2803.02637	     0.23160
  2803.99072	     0.23160
  2804.95508	     0.23129
  2805.91919	     0.23072
  2806.88330	     0.22997
  2807.84766	     0.22918
  2808.81201	     0.22847
  2809.77612	     0.22792
  2810.74023	     0.22754
  2811.70459	     0.22726
  2812.66895	     0.22697
  2813.63306	     0.22657
  2814.59717	     0.22599
  2815.56152	     0.22524
  2816.52588	     0.22436
  2817.48999	     0.22345
  2818.45410	     0.22258
  2819.41846	     0.22182
  2820.38281	     0.22117
  2821.34692	     0.22062
  2822.31104	     0.22013
  2823.27539	     0.21965
  2824.23975	     0.21913
  2825.20386	     0.21857
  2826.16797	     0.21792
  2827.13232	     0.21719
  2828.09668	     0.21636
  2829.06079	     0.21543
  2830.02490	     0.21443
  2830.98926	     0.21341
  2831.95361	     0.21244
  2832.91772	     0.21158
  2833.88184	     0.21088
  2834.84619	     0.21037
  2835.81055	     0.21002
  2836.77466	     0.20976
  2837.73877	     0.20948
  2838.70313	     0.20909
  2839.66748	     0.20849
  2840.63159	     0.20763
  2841.59570	     0.20648
  2842.56006	     0.20510
  2843.52441	     0.20353
  2844.48853	     0.20186
  2845.45264	     0.20016
  2846.41699	     0.19848
  2847.38135	     0.19682
  2848.34546	     0.19518
  2849.30957	     0.19354
  2850.27393	     0.19186
  2851.23828	     0.19015
  2852.20239	     0.18841
  2853.16650	     0.18670
  2854.13086	     0.18505
  2855.09521	     0.18352
  2856.05933	     0.18213
  2857.02344	     0.18086
  2857.98779	     0.17968
  2858.95215	     0.17854
  2859.91626	     0.17741
  2860.88037	     0.17629
  2861.84473	     0.17520
  2862.80908	     0.17420
  2863.77319	     0.17334
  2864.73730	     0.17267
  2865.70166	     0.17220
  2866.66602	     0.17190
  2867.63013	     0.17173
  2868.59424	     0.17163
  2869.55859	     0.17155
  2870.52295	     0.17146
  2871.48706	     0.17134
  2872.45117	     0.17122
  2873.41553	     0.17111
  2874.37988	     0.17103
  2875.34399	     0.17100
  2876.30811	     0.17106
  2877.27246	     0.17121
  2878.23682	     0.17146
  2879.20093	     0.17182
  2880.16504	     0.17226
  2881.12939	     0.17272
  2882.09375	     0.17313
  2883.05786	     0.17343
  2884.02197	     0.17357
  2884.98633	     0.17356
  2885.95068	     0.17344
  2886.91479	     0.17329
  2887.87891	     0.17318
  2888.84326	     0.17318
  2889.80762	     0.17333
  2890.77173	     0.17360
  2891.73584	     0.17393
  2892.70020	     0.17427
  2893.66455	     0.17455
  2894.62866	     0.17476
  2895.59277	     0.17489
  2896.55713	     0.17495
  2897.52148	     0.17493
  2898.48560	     0.17481
  2899.44971	     0.17456
  2900.41406	     0.17412
  2901.37842	     0.17348
  2902.34253	     0.17264
  2903.30664	     0.17167
  2904.27100	     0.17064
  2905.23535	     0.16965
  2906.19946	     0.16873
  2907.16357	     0.16787
  2908.12793	     0.16704
  2909.09229	     0.16614
  2910.05640	     0.16514
  2911.02051	     0.16403
  2911.98486	     0.16286
  2912.94922	     0.16175
  2913.91333	     0.16082
  2914.87744	     0.16015
  2915.84180	     0.15976
  2916.80615	     0.15955
  2917.77026	     0.15937
  2918.73438	     0.15901
  2919.69873	     0.15831
  2920.66309	     0.15718
  2921.62720	     0.15568
  2922.59131	     0.15394
  2923.55566	     0.15216
  2924.52002	     0.15053
  2925.48413	     0.14919
  2926.44824	     0.14818
  2927.41260	     0.14748
  2928.37695	     0.14702
  2929.34106	     0.14673
  2930.30518	     0.14659
  2931.26953	     0.14657
  2932.23389	     0.14671
  2933.19800	     0.14701
  2934.16211	     0.14745
  2935.12646	     0.14797
  2936.09082	     0.14847
  2937.05493	     0.14889
  2938.01904	     0.14919
  2938.98340	     0.14940
  2939.94775	     0.14961
  2940.91187	     0.14996
  2941.87598	     0.15057
  2942.84033	     0.15151
  2943.80469	     0.15277
  2944.76880	     0.15428
  2945.73291	     0.15588
  2946.69727	     0.15737
  2947.66162	     0.15860
  2948.62573	     0.15946
  2949.58984	     0.15989
  2950.55420	     0.15994
  2951.51855	     0.15970
  2952.48267	     0.15928
  2953.44678	     0.15877
  2954.41113	     0.15823
  2955.37549	     0.15766
  2956.33960	     0.15699
  2957.30371	     0.15616
  2958.26807	     0.15509
  2959.23242	     0.15376
  2960.19653	     0.15222
  2961.16064	     0.15057
  2962.12500	     0.14899
  2963.08936	     0.14765
  2964.05347	     0.14670
  2965.01758	     0.14623
  2965.98193	     0.14623
  2966.94629	     0.14661
  2967.91040	     0.14723
  2968.87451	     0.14795
  2969.83887	     0.14865
  2970.80322	     0.14926
  2971.76733	     0.14977
  2972.73145	     0.15020
  2973.69580	     0.15059
  2974.66016	     0.15096
  2975.62427	     0.15130
  2976.58838	     0.15160
  2977.55273	     0.15184
  2978.51709	     0.15201
  2979.48120	     0.15213
  2980.44531	     0.15225
  2981.40967	     0.15243
  2982.37402	     0.15273
  2983.33813	     0.15319
  2984.30225	     0.15383
  2985.26660	     0.15462
  2986.23096	     0.15555
  2987.19507	     0.15657
  2988.15918	     0.15763
  2989.12354	     0.15869
  2990.08789	     0.15970
  2991.05200	     0.16064
  2992.01611	     0.16149
  2992.98047	     0.16225
  2993.94482	     0.16295
  2994.90894	     0.16363
  2995.87305	     0.16433
  2996.83740	     0.16507
  2997.80176	     0.16583
  2998.76587	     0.16656
  2999.72998	     0.16715
  3000.69434	     0.16748
  3001.65869	     0.16746
  3002.62280	     0.16706
  3003.58691	     0.16630
  3004.55127	     0.16531
  3005.51563	     0.16426
  3006.47974	     0.16337
  3007.44385	     0.16281
  3008.40820	     0.16269
  3009.37256	     0.16303
  3010.33667	     0.16378
  3011.30078	     0.16479
  3012.26514	     0.16588
  3013.22949	     0.16687
  3014.19360	     0.16761
  3015.15771	     0.16804
  3016.12207	     0.16815
  3017.08643	     0.16800
  3018.05054	     0.16766
  3019.01465	     0.16724
  3019.97900	     0.16679
  3020.94336	     0.16634
  3021.90747	     0.16587
  3022.87158	     0.16536
  3023.83594	     0.16479
  3024.80029	     0.16418
  3025.76440	     0.16356
  3026.72852	     0.16300
  3027.69287	     0.16256
  3028.65723	     0.16230
  3029.62134	     0.16223
  3030.58545	     0.16229
  3031.54980	     0.16238
  3032.51416	     0.16236
  3033.47827	     0.16206
  3034.44238	     0.16133
  3035.40674	     0.16009
  3036.37109	     0.15833
  3037.33521	     0.15619
  3038.29932	     0.15390
  3039.26367	     0.15176
  3040.22803	     0.15007
  3041.19214	     0.14906
  3042.15625	     0.14883
  3043.12061	     0.14931
  3044.08496	     0.15030
  3045.04907	     0.15147
  3046.01318	     0.15250
  3046.97754	     0.15313
  3047.94189	     0.15323
  3048.90601	     0.15286
  3049.87012	     0.15220
  3050.83447	     0.15150
  3051.79883	     0.15100
  3052.76294	     0.15085
  3053.72705	     0.15110
  3054.69141	     0.15169
  3055.65576	     0.15246
  3056.61987	     0.15321
  3057.58398	     0.15375
  3058.54834	     0.15393
  3059.51270	     0.15363
  3060.47681	     0.15279
  3061.44092	     0.15145
  3062.40527	     0.14968
  3063.36963	     0.14767
  3064.33374	     0.14563
  3065.29785	     0.14380
  3066.26221	     0.14243
  3067.22656	     0.14166
  3068.19067	     0.14153
  3069.15479	     0.14196
  3070.11914	     0.14277
  3071.08350	     0.14373
  3072.04761	     0.14465
  3073.01172	     0.14543
  3073.97607	     0.14605
  3074.94043	     0.14658
  3075.90454	     0.14712
  3076.86865	     0.14774
  3077.83301	     0.14845
  3078.79736	     0.14918
  3079.76147	     0.14981
  3080.72559	     0.15017
  3081.68994	     0.15018
  3082.65430	     0.14979
  3083.61841	     0.14906
  3084.58252	     0.14812
  3085.54688	     0.14712
  3086.51123	     0.14620
  3087.47534	     0.14545
  3088.43945	     0.14487
  3089.40381	     0.14441
  3090.36816	     0.14399
  3091.33228	     0.14353
  3092.29639	     0.14302
  3093.26074	     0.14251
  3094.22510	     0.14213
  3095.18921	     0.14202
  3096.15332	     0.14228
  3097.11768	     0.14294
  3098.08203	     0.14395
  3099.04614	     0.14514
  3100.01025	     0.14630
  3100.97461	     0.14725
  3101.93896	     0.14784
  3102.90308	     0.14803
  3103.86719	     0.14787
  3104.83154	     0.14744
  3105.79590	     0.14685
  3106.76001	     0.14615
  3107.72412	     0.14538
  3108.68848	     0.14452
  3109.65283	     0.14356
  3110.61694	     0.14254
  3111.58105	     0.14154
  3112.54541	     0.14069
  3113.50977	     0.14013
  3114.47388	     0.13995
  3115.43799	     0.14018
  3116.40234	     0.14077
  3117.36670	     0.14160
  3118.33081	     0.14252
  3119.29492	     0.14340
  3120.25928	     0.14414
  3121.22363	     0.14468
  3122.18774	     0.14500
  3123.15186	     0.14511
  3124.11621	     0.14500
  3125.08057	     0.14467
  3126.04468	     0.14414
  3127.00879	     0.14346
  3127.97314	     0.14271
  3128.93750	     0.14198
  3129.90161	     0.14137
  3130.86572	     0.14097
  3131.83008	     0.14081
  3132.79443	     0.14088
  3133.75854	     0.14112
  3134.72266	     0.14148
  3135.68701	     0.14188
  3136.65137	     0.14228
  3137.61548	     0.14263
  3138.57959	     0.14287
  3139.54395	     0.14296
  3140.50830	     0.14283
  3141.47241	     0.14244
  3142.43652	     0.14179
  3143.40088	     0.14091
  3144.36523	     0.13992
  3145.32935	     0.13893
  3146.29346	     0.13806
  3147.25781	     0.13743
  3148.22217	     0.13707
  3149.18628	     0.13700
  3150.15039	     0.13720
  3151.11475	     0.13764
  3152.07910	     0.13830
  3153.04321	     0.13915
  3154.00732	     0.14017
  3154.97168	     0.14128
  3155.93604	     0.14241
  3156.90015	     0.14345
  3157.86426	     0.14429
  3158.82861	     0.14487
  3159.79297	     0.14519
  3160.75708	     0.14526
  3161.72119	     0.14515
  3162.68555	     0.14491
  3163.64990	     0.14460
  3164.61401	     0.14423
  3165.57813	     0.14382
  3166.54248	     0.14339
  3167.50684	     0.14297
  3168.47095	     0.14265
  3169.43506	     0.14250
  3170.39941	     0.14256
  3171.36377	     0.14286
  3172.32788	     0.14336
  3173.29199	     0.14395
  3174.25635	     0.14455
  3175.22070	     0.14506
  3176.18481	     0.14542
  3177.14893	     0.14561
  3178.11328	     0.14563
  3179.07764	     0.14551
  3180.04175	     0.14524
  3181.00586	     0.14484
  3181.97021	     0.14432
  3182.93457	     0.14371
  3183.89868	     0.14303
  3184.86279	     0.14235
  3185.82715	     0.14169
  3186.79150	     0.14109
  3187.75562	     0.14053
  3188.71973	     0.13999
  3189.68408	     0.13946
  3190.64844	     0.13895
  3191.61255	     0.13855
  3192.57666	     0.13834
  3193.54102	     0.13843
  3194.50537	     0.13890
  3195.46948	     0.13975
  3196.43359	     0.14093
  3197.39795	     0.14231
  3198.36230	     0.14378
  3199.32642	     0.14520
  3200.29053	     0.14647
  3201.25488	     0.14750
  3202.21924	     0.14823
  3203.18335	     0.14855
  3204.14746	     0.14839
  3205.11182	     0.14771
  3206.07617	     0.14654
  3207.04028	     0.14505
  3208.00439	     0.14348
  3208.96875	     0.14214
  3209.93311	     0.14130
  3210.89722	     0.14106
  3211.86133	     0.14140
  3212.82568	     0.14208
  3213.79004	     0.14277
  3214.75415	     0.14314
  3215.71826	     0.14297
  3216.68262	     0.14222
  3217.64697	     0.14100
  3218.61108	     0.13957
  3219.57520	     0.13822
  3220.53955	     0.13718
  3221.50391	     0.13659
  3222.46802	     0.13650
  3223.43213	     0.13685
  3224.39648	     0.13753
  3225.36084	     0.13840
  3226.32495	     0.13933
  3227.28906	     0.14019
  3228.25342	     0.14088
  3229.21777	     0.14133
  3230.18188	     0.14155
  3231.14600	     0.14163
  3232.11035	     0.14172
  3233.07471	     0.14199
  3234.03882	     0.14257
  3235.00293	     0.14348
  3235.96729	     0.14457
  3236.93164	     0.14559
  3237.89575	     0.14625
  3238.85986	     0.14632
  3239.82422	     0.14575
  3240.78857	     0.14466
  3241.75269	     0.14337
  3242.71680	     0.14223
  3243.68115	     0.14157
  3244.64551	     0.14161
  3245.60962	     0.14240
  3246.57373	     0.14384
  3247.53809	     0.14577
  3248.50244	     0.14794
  3249.46655	     0.15018
  3250.43066	     0.15233
  3251.39502	     0.15430
  3252.35938	     0.15605
  3253.32349	     0.15755
  3254.28760	     0.15880
  3255.25195	     0.15977
  3256.21631	     0.16047
  3257.18042	     0.16086
  3258.14453	     0.16091
  3259.10889	     0.16055
  3260.07324	     0.15971
  3261.03735	     0.15833
  3262.00146	     0.15644
  3262.96582	     0.15414
  3263.93018	     0.15167
  3264.89429	     0.14929
  3265.85840	     0.14731
  3266.82275	     0.14591
  3267.78711	     0.14519
  3268.75122	     0.14507
  3269.71533	     0.14538
  3270.67969	     0.14594
  3271.64404	     0.14656
  3272.60815	     0.14716
  3273.57227	     0.14772
  3274.53662	     0.14829
  3275.50098	     0.14889
  3276.46509	     0.14951
  3277.42920	     0.15009
  3278.39355	     0.15050
  3279.35791	     0.15068
  3280.32202	     0.15057
  3281.28613	     0.15024
  3282.25049	     0.14978
  3283.21484	     0.14931
  3284.17896	     0.14896
  3285.14307	     0.14876
  3286.10742	     0.14871
  3287.07178	     0.14879
  3288.03589	     0.14897
  3289.00000	     0.14922
  3289.96436	     0.14956
  3290.92871	     0.15001
  3291.89282	     0.15058
  3292.85693	     0.15125
  3293.82129	     0.15195
  3294.78564	     0.15259
  3295.74976	     0.15305
  3296.71387	     0.15323
  3297.67822	     0.15308
  3298.64258	     0.15260
  3299.60669	     0.15186
  3300.57080	     0.15095
  3301.53516	     0.15001
  3302.49951	     0.14915
  3303.46362	     0.14846
  3304.42773	     0.14801
  3305.39209	     0.14778
  3306.35645	     0.14776
  3307.32056	     0.14788
  3308.28467	     0.14806
  3309.24902	     0.14827
  3310.21338	     0.14852
  3311.17749	     0.14883
  3312.14160	     0.14926
  3313.10596	     0.14983
  3314.07031	     0.15050
  3315.03442	     0.15120
  3315.99854	     0.15176
  3316.96289	     0.15206
  3317.92725	     0.15197
  3318.89136	     0.15146
  3319.85547	     0.15057
  3320.81982	     0.14945
  3321.78418	     0.14827
  3322.74829	     0.14724
  3323.71240	     0.14654
  3324.67676	     0.14629
  3325.64111	     0.14654
  3326.60522	     0.14728
  3327.56934	     0.14836
  3328.53369	     0.14958
  3329.49805	     0.15066
  3330.46216	     0.15135
  3331.42627	     0.15145
  3332.39063	     0.15090
  3333.35498	     0.14976
  3334.31909	     0.14823
  3335.28320	     0.14657
  3336.24756	     0.14507
  3337.21191	     0.14393
  3338.17603	     0.14324
  3339.14014	     0.14299
  3340.10449	     0.14303
  3341.06885	     0.14321
  3342.03296	     0.14337
  3342.99707	     0.14340
  3343.96143	     0.14328
  3344.92578	     0.14304
  3345.88989	     0.14273
  3346.85400	     0.14240
  3347.81836	     0.14205
  3348.78271	     0.14167
  3349.74683	     0.14119
  3350.71094	     0.14060
  3351.67529	     0.13988
  3352.63965	     0.13909
  3353.60376	     0.13833
  3354.56787	     0.13773
  3355.53223	     0.13743
  3356.49658	     0.13753
  3357.46069	     0.13807
  3358.42480	     0.13900
  3359.38916	     0.14015
  3360.35352	     0.14131
  3361.31763	     0.14222
  3362.28174	     0.14267
  3363.24609	     0.14253
  3364.21045	     0.14186
  3365.17456	     0.14083
  3366.13867	     0.13974
  3367.10303	     0.13892
  3368.06738	     0.13867
  3369.03149	     0.13914
  3369.99561	     0.14034
  3370.95996	     0.14208
  3371.92432	     0.14405
  3372.88843	     0.14590
  3373.85254	     0.14733
  3374.81689	     0.14817
  3375.78125	     0.14840
  3376.74536	     0.14816
  3377.70947	     0.14766
  3378.67383	     0.14712
  3379.63818	     0.14669
  3380.60229	     0.14640
  3381.56641	     0.14615
  3382.53076	     0.14577
  3383.49512	     0.14507
  3384.45923	     0.14396
  3385.42334	     0.14249
  3386.38770	     0.14084
  3387.35205	     0.13929
  3388.31616	     0.13809
  3389.28027	     0.13742
  3390.24463	     0.13727
  3391.20898	     0.13752
  3392.17310	     0.13789
  3393.13721	     0.13816
  3394.10156	     0.13819
  3395.06592	     0.13804
  3396.03003	     0.13793
  3396.99414	     0.13816
  3397.95850	     0.13896
  3398.92285	     0.14041
  3399.88696	     0.14240
  3400.85107	     0.14463
  3401.81543	     0.14672
  3402.77979	     0.14832
  3403.74390	     0.14928
  3404.70801	     0.14963
  3405.67236	     0.14954
  3406.63672	     0.14926
  3407.60083	     0.14898
  3408.56494	     0.14875
  3409.52930	     0.14852
  3410.49365	     0.14816
  3411.45776	     0.14759
  3412.42188	     0.14681
  3413.38623	     0.14596
  3414.35059	     0.14526
  3415.31470	     0.14496
  3416.27881	     0.14524
  3417.24316	     0.14613
  3418.20752	     0.14752
  3419.17163	     0.14917
  3420.13574	     0.15076
  3421.10010	     0.15199
  3422.06445	     0.15265
  3423.02856	     0.15268
  3423.99268	     0.15215
  3424.95703	     0.15125
  3425.92139	     0.15026
  3426.88550	     0.14944
  3427.84961	     0.14899
  3428.81396	     0.14901
  3429.77832	     0.14948
  3430.74243	     0.15028
  3431.70654	     0.15119
  3432.67090	     0.15197
  3433.63525	     0.15241
  3434.59937	     0.15237
  3435.56348	     0.15179
  3436.52783	     0.15074
  3437.49219	     0.14936
  3438.45630	     0.14786
  3439.42041	     0.14650
  3440.38477	     0.14551
  3441.34912	     0.14507
  3442.31323	     0.14527
  3443.27734	     0.14603
  3444.24170	     0.14716
  3445.20605	     0.14833
  3446.17017	     0.14918
  3447.13428	     0.14941
  3448.09863	     0.14889
  3449.06299	     0.14770
  3450.02710	     0.14614
  3450.99121	     0.14465
  3451.95557	     0.14364
  3452.91992	     0.14341
  3453.88403	     0.14401
  3454.84814	     0.14525
  3455.81250	     0.14680
  3456.77686	     0.14825
  3457.74097	     0.14924
  3458.70508	     0.14956
  3459.66943	     0.14923
  3460.63379	     0.14842
  3461.59790	     0.14742
  3462.56201	     0.14656
  3463.52637	     0.14609
  3464.49072	     0.14616
  3465.45483	     0.14680
  3466.41895	     0.14793
  3467.38330	     0.14941
  3468.34766	     0.15105
  3469.31177	     0.15265
  3470.27588	     0.15404
  3471.24023	     0.15512
  3472.20459	     0.15581
  3473.16870	     0.15613
  3474.13281	     0.15613
  3475.09717	     0.15585
  3476.06152	     0.15535
  3477.02563	     0.15466
  3477.98975	     0.15381
  3478.95410	     0.15283
  3479.91846	     0.15179
  3480.88257	     0.15079
  3481.84668	     0.14995
  3482.81104	     0.14938
  3483.77539	     0.14914
  3484.73950	     0.14924
  3485.70361	     0.14960
  3486.66797	     0.15014
  3487.63232	     0.15072
  3488.59644	     0.15121
  3489.56055	     0.15147
  3490.52490	     0.15141
  3491.48926	     0.15094
  3492.45337	     0.15003
  3493.41748	     0.14875
  3494.38184	     0.14727
  3495.34619	     0.14585
  3496.31030	     0.14482
  3497.27441	     0.14448
  3498.23877	     0.14507
  3499.20313	     0.14666
  3500.16724	     0.14913
  3501.13135	     0.15223
  3502.09570	     0.15556
  3503.06006	     0.15872
  3504.02417	     0.16135
  3504.98828	     0.16320
  3505.95264	     0.16415
  3506.91699	     0.16419
  3507.88110	     0.16342
  3508.84521	     0.16198
  3509.80957	     0.16008
  3510.77393	     0.15799
  3511.73804	     0.15599
  3512.70215	     0.15432
  3513.66650	     0.15313
  3514.63086	     0.15243
  3515.59497	     0.15209
  3516.55908	     0.15189
  3517.52344	     0.15164
  3518.48779	     0.15126
  3519.45190	     0.15081
  3520.41602	     0.15052
  3521.38037	     0.15065
  3522.34473	     0.15141
  3523.30884	     0.15287
  3524.27295	     0.15487
  3525.23730	     0.15711
  3526.20166	     0.15921
  3527.16577	     0.16089
  3528.12988	     0.16207
  3529.09424	     0.16286
  3530.05859	     0.16349
  3531.02271	     0.16419
  3531.98682	     0.16507
  3532.95117	     0.16607
  3533.91553	     0.16702
  3534.87964	     0.16768
  3535.84375	     0.16784
  3536.80811	     0.16740
  3537.77246	     0.16642
  3538.73657	     0.16509
  3539.70068	     0.16362
  3540.66504	     0.16226
  3541.62939	     0.16118
  3542.59351	     0.16051
  3543.55762	     0.16028
  3544.52197	     0.16048
  3545.48633	     0.16103
  3546.45044	     0.16181
  3547.41455	     0.16269
  3548.37891	     0.16356
  3549.34326	     0.16431
  3550.30737	     0.16492
  3551.27148	     0.16535
  3552.23584	     0.16557
  3553.20020	     0.16553
  3554.16431	     0.16512
  3555.12842	     0.16426
  3556.09277	     0.16292
  3557.05713	     0.16122
  3558.02124	     0.15945
  3558.98535	     0.15806
  3559.94971	     0.15760
  3560.91406	     0.15862
  3561.87817	     0.16147
  3562.84229	     0.16618
  3563.80664	     0.17235
  3564.77100	     0.17914
  3565.73511	     0.18544
  3566.69922	     0.19024
  3567.66357	     0.19297
  3568.62793	     0.19371
  3569.59204	     0.19315
  3570.55615	     0.19226
  3571.52051	     0.19194
  3572.48486	     0.19272
  3573.44897	     0.19466
  3574.41309	     0.19742
  3575.37744	     0.20035
  3576.34180	     0.20274
  3577.30591	     0.20407
  3578.27002	     0.20418
  3579.23438	     0.20334
  3580.19873	     0.20223
  3581.16284	     0.20163
  3582.12695	     0.20227
  3583.09131	     0.20457
  3584.05566	     0.20853
  3585.01978	     0.21372
  3585.98389	     0.21929
  3586.94824	     0.22431
  3587.91260	     0.22808
  3588.87671	     0.23043
  3589.84082	     0.23171
  3590.80518	     0.23255
  3591.76953	     0.23356
  3592.73364	     0.23510
  3593.69775	     0.23720
  3594.66211	     0.23963
  3595.62646	     0.24200
  3596.59058	     0.24395
  3597.55469	     0.24520
  3598.51904	     0.24567
  3599.48340	     0.24545
  3600.44751	     0.24472
  3601.41162	     0.24378
  3602.37598	     0.24297
  3603.34033	     0.24267
  3604.30444	     0.24333
  3605.26855	     0.24533
  3606.23291	     0.24894
  3607.19727	     0.25420
  3608.16138	     0.26081
  3609.12549	     0.26820
  3610.08984	     0.27564
  3611.05420	     0.28248
  3612.01831	     0.28830
  3612.98242	     0.29300
  3613.94678	     0.29666
  3614.91113	     0.29940
  3615.87524	     0.30124
  3616.83936	     0.30205
  3617.80371	     0.30166
  3618.76807	     0.30010
  3619.73218	     0.29771
  3620.69629	     0.29518
  3621.66064	     0.29341
  3622.62500	     0.29321
  3623.58911	     0.29515
  3624.55322	     0.29938
  3625.51758	     0.30555
  3626.48193	     0.31285
  3627.44604	     0.32013
  3628.41016	     0.32616
  3629.37451	     0.33008
  3630.33887	     0.33176
  3631.30298	     0.33173
  3632.26709	     0.33095
  3633.23145	     0.33028
  3634.19580	     0.33029
  3635.15991	     0.33113
  3636.12402	     0.33267
  3637.08838	     0.33463
  3638.05273	     0.33673
  3639.01685	     0.33887
  3639.98096	     0.34112
  3640.94531	     0.34385
  3641.90967	     0.34752
  3642.87378	     0.35270
  3643.83789	     0.35981
  3644.80225	     0.36898
  3645.76660	     0.37988
  3646.73071	     0.39146
  3647.69482	     0.40196
  3648.65918	     0.40940
  3649.62354	     0.41237
  3650.58765	     0.41086
  3651.55176	     0.40626
  3652.51611	     0.40059
  3653.48047	     0.39572
  3654.44458	     0.39278
  3655.40869	     0.39217
  3656.37305	     0.39362
  3657.33740	     0.39647
  3658.30151	     0.39988
  3659.26563	     0.40311
  3660.22998	     0.40573
  3661.19434	     0.40773
  3662.15845	     0.40945
  3663.12256	     0.41145
  3664.08691	     0.41427
  3665.05127	     0.41832
  3666.01538	     0.42377
  3666.97949	     0.43050
  3667.94385	     0.43814
  3668.90820	     0.44609
  3669.87231	     0.45375
  3670.83643	     0.46060
  3671.80078	     0.46634
  3672.76514	     0.47088
  3673.72925	     0.47419
  3674.69336	     0.47614
  3675.65771	     0.47648
  3676.62207	     0.47493
  3677.58618	     0.47133
  3678.55029	     0.46589
  3679.51465	     0.45918
  3680.47900	     0.45203
  3681.44312	     0.44543
  3682.40723	     0.44034
  3683.37158	     0.43767
  3684.33594	     0.43812
  3685.30005	     0.44211
  3686.26416	     0.44957
  3687.22852	     0.45973
  3688.19287	     0.47106
  3689.15698	     0.48150
  3690.12109	     0.48914
  3691.08545	     0.49293
  3692.04980	     0.49306
  3693.01392	     0.49067
  3693.97803	     0.48726
  3694.94238	     0.48415
  3695.90674	     0.48225
  3696.87085	     0.48190
  3697.83496	     0.48298
  3698.79932	     0.48500
  3699.76367	     0.48722
  3700.72778	     0.48893
  3701.69189	     0.48964
  3702.65625	     0.48936
  3703.62061	     0.48852
  3704.58472	     0.48786
  3705.54883	     0.48807
  3706.51318	     0.48955
  3707.47754	     0.49216
  3708.44165	     0.49524
  3709.40576	     0.49762
  3710.37012	     0.49805
  3711.33447	     0.49567
  3712.29858	     0.49051
  3713.26270	     0.48350
  3714.22705	     0.47605
  3715.19141	     0.46948
  3716.15552	     0.46467
  3717.11963	     0.46200
  3718.08398	     0.46144
  3719.04834	     0.46272
  3720.01245	     0.46540
  3720.97656	     0.46892
  3721.94092	     0.47263
  3722.90527	     0.47578
  3723.86938	     0.47766
  3724.83350	     0.47773
  3725.79785	     0.47584
  3726.76221	     0.47236
  3727.72632	     0.46814
  3728.69043	     0.46434
  3729.65479	     0.46214
  3730.61914	     0.46245
  3731.58325	     0.46560
  3732.54736	     0.47113
  3733.51172	     0.47769
  3734.47607	     0.48334
  3735.44019	     0.48629
  3736.40430	     0.48579
  3737.36865	     0.48249
  3738.33301	     0.47795
  3739.29712	     0.47382
  3740.26123	     0.47123
  3741.22559	     0.47055
  3742.18994	     0.47151
  3743.15405	     0.47344
  3744.11816	     0.47560
  3745.08252	     0.47744
  3746.04688	     0.47873
  3747.01099	     0.47947
  3747.97510	     0.47964
  3748.93945	     0.47904
  3749.90381	     0.47732
  3750.86792	     0.47422
  3751.83203	     0.46986
  3752.79639	     0.46481
  3753.76074	     0.45992
  3754.72485	     0.45593
  3755.68896	     0.45330
  3756.65332	     0.45202
  3757.61768	     0.45174
  3758.58179	     0.45190
  3759.54590	     0.45200
  3760.51025	     0.45183
  3761.47461	     0.45155
  3762.43872	     0.45158
  3763.40283	     0.45233
  3764.36719	     0.45399
  3765.33154	     0.45636
  3766.29565	     0.45884
  3767.25977	     0.46067
  3768.22412	     0.46116
  3769.18848	     0.46007
  3770.15259	     0.45772
  3771.11670	     0.45485
  3772.08105	     0.45234
  3773.04541	     0.45082
  3774.00952	     0.45062
  3774.97363	     0.45172
  3775.93799	     0.45388
  3776.90234	     0.45677
  3777.86646	     0.46005
  3778.83057	     0.46342
  3779.79492	     0.46659
  3780.75928	     0.46928
  3781.72339	     0.47114
  3782.68750	     0.47182
  3783.65186	     0.47105
  3784.61621	     0.46875
  3785.58032	     0.46506
  3786.54443	     0.46042
  3787.50879	     0.45543
  3788.47314	     0.45075
  3789.43726	     0.44697
  3790.40137	     0.44450
  3791.36572	     0.44356
  3792.33008	     0.44417
  3793.29419	     0.44622
  3794.25830	     0.44947
  3795.22266	     0.45359
  3796.18701	     0.45821
  3797.15112	     0.46288
  3798.11523	     0.46712
  3799.07959	     0.47053
  3800.04395	     0.47281
  3801.00806	     0.47383
  3801.97217	     0.47362
  3802.93652	     0.47234
  3803.90088	     0.47020
  3804.86499	     0.46748
  3805.82910	     0.46451
  3806.79346	     0.46162
  3807.75781	     0.45914
  3808.72192	     0.45731
  3809.68604	     0.45625
  3810.65039	     0.45596
  3811.61475	     0.45629
  3812.57886	     0.45706
  3813.54297	     0.45809
  3814.50732	     0.45924
  3815.47168	     0.46043
  3816.43579	     0.46163
  3817.39990	     0.46278
  3818.36426	     0.46370
  3819.32861	     0.46411
  3820.29272	     0.46367
  3821.25684	     0.46216
  3822.22119	     0.45961
  3823.18555	     0.45626
  3824.14966	     0.45248
  3825.11377	     0.44863
  3826.07813	     0.44487
  3827.04248	     0.44126
  3828.00659	     0.43774
  3828.97070	     0.43434
  3829.93506	     0.43129
  3830.89941	     0.42907
  3831.86353	     0.42837
  3832.82764	     0.42990
  3833.79199	     0.43406
  3834.75635	     0.44073
  3835.72046	     0.44908
  3836.68457	     0.45763
  3837.64893	     0.46467
  3838.61328	     0.46876
  3839.57739	     0.46924
  3840.54150	     0.46627
  3841.50586	     0.46062
  3842.47021	     0.45331
  3843.43433	     0.44533
  3844.39844	     0.43760
  3845.36279	     0.43091
  3846.32715	     0.42606
  3847.29126	     0.42376
  3848.25537	     0.42457
  3849.21973	     0.42873
  3850.18408	     0.43589
  3851.14819	     0.44481
  3852.11230	     0.45339
  3853.07666	     0.45921
  3854.04102	     0.46070
  3855.00513	     0.45805
  3855.96924	     0.45305
  3856.93359	     0.44788
  3857.89795	     0.44408
  3858.86206	     0.44221
  3859.82617	     0.44192
  3860.79053	     0.44232
  3861.75488	     0.44242
  3862.71899	     0.44158
  3863.68311	     0.43980
  3864.64746	     0.43769
  3865.61182	     0.43622
  3866.57593	     0.43615
  3867.54004	     0.43771
  3868.50439	     0.44037
  3869.46875	     0.44309
  3870.43286	     0.44474
  3871.39697	     0.44463
  3872.36133	     0.44277
  3873.32568	     0.43980
  3874.28979	     0.43667
  3875.25391	     0.43424
  3876.21826	     0.43297
  3877.18262	     0.43291
  3878.14673	     0.43379
  3879.11084	     0.43511
  3880.07520	     0.43634
  3881.03955	     0.43700
  3882.00366	     0.43678
  3882.96777	     0.43555
  3883.93213	     0.43340
  3884.89648	     0.43060
  3885.86060	     0.42755
  3886.82471	     0.42471
  3887.78906	     0.42241
  3888.75342	     0.42084
  3889.71753	     0.41991
  3890.68164	     0.41934
  3891.64600	     0.41878
  3892.61035	     0.41794
  3893.57446	     0.41679
  3894.53857	     0.41561
  3895.50293	     0.41484
  3896.46729	     0.41499
  3897.43140	     0.41638
  3898.39551	     0.41902
  3899.35986	     0.42247
  3900.32422	     0.42592
  3901.28833	     0.42838
  3902.25244	     0.42908
  3903.21680	     0.42777
  3904.18115	     0.42479
  3905.14526	     0.42081
  3906.10938	     0.41648
  3907.07373	     0.41228
  3908.03809	     0.40844
  3909.00220	     0.40511
  3909.96631	     0.40242
  3910.93066	     0.40064
  3911.89502	     0.40016
  3912.85913	     0.40148
  3913.82324	     0.40511
  3914.78760	     0.41137
  3915.75195	     0.42024
  3916.71606	     0.43112
  3917.68018	     0.44275
  3918.64453	     0.45341
  3919.60889	     0.46143
  3920.57300	     0.46568
  3921.53711	     0.46591
  3922.50146	     0.46268
  3923.46582	     0.45715
  3924.42993	     0.45070
  3925.39404	     0.44469
  3926.35840	     0.44016
  3927.32275	     0.43771
  3928.28687	     0.43736
  3929.25098	     0.43865
  3930.21533	     0.44080
  3931.17969	     0.44299
  3932.14380	     0.44463
  3933.10791	     0.44551
  3934.07227	     0.44582
  3935.03662	     0.44594
  3936.00073	     0.44624
  3936.96484	     0.44687
  3937.92920	     0.44774
  3938.89355	     0.44860
  3939.85767	     0.44919
  3940.82178	     0.44933
  3941.78613	     0.44901
  3942.75049	     0.44828
  3943.71460	     0.44716
  3944.67871	     0.44548
  3945.64307	     0.44291
  3946.60742	     0.43912
  3947.57153	     0.43393
  3948.53564	     0.42759
  3949.50000	     0.42075
  3950.46436	     0.41433
  3951.42847	     0.40923
  3952.39258	     0.40601
  3953.35693	     0.40473
  3954.32129	     0.40497
  3955.28540	     0.40599
  3956.24951	     0.40699
  3957.21387	     0.40741
  3958.17822	     0.40702
  3959.14233	     0.40595
  3960.10645	     0.40454
  3961.07080	     0.40320
  3962.03516	     0.40223
  3962.99927	     0.40176
  3963.96338	     0.40180
  3964.92773	     0.40224
  3965.89209	     0.40297
  3966.85620	     0.40388
  3967.82031	     0.40491
  3968.78467	     0.40596
  3969.74902	     0.40694
  3970.71313	     0.40776
  3971.67725	     0.40831
  3972.64160	     0.40849
  3973.60596	     0.40823
  3974.57007	     0.40745
  3975.53418	     0.40613
  3976.49854	     0.40432
  3977.46289	     0.40224
  3978.42700	     0.40023
  3979.39111	     0.39878
  3980.35547	     0.39838
  3981.31982	     0.39933
  3982.28394	     0.40159
  3983.24805	     0.40466
  3984.21240	     0.40771
  3985.17676	     0.40977
  3986.14087	     0.41006
  3987.10498	     0.40824
  3988.06934	     0.40455
  3989.03369	     0.39966
  3989.99780	     0.39448
  3990.96191	     0.38979
  3991.92627	     0.38606
  3992.89063	     0.38336
  3993.85474	     0.38151
  3994.81885	     0.38025
  3995.78320	     0.37950
  3996.74756	     0.37938
  3997.71167	     0.38020
  3998.67578	     0.38219
  3999.64014	     0.38536
  4000.60449	     0.38940
