399.24985,0.00558
400.21422,0.00515
401.17859,0.00421
402.14296,0.00336
403.10734,0.00284
404.07171,0.00248
405.03608,0.00220
406.00045,0.00212
406.96482,0.00229
407.92919,0.00259
408.89357,0.00289
409.85794,0.00319
410.82231,0.00345
411.78668,0.00352
412.75105,0.00334
413.71542,0.00299
414.67980,0.00254
415.64417,0.00192
416.60854,0.00121
417.57291,0.00065
418.53728,0.00055
419.50165,0.00091
420.46602,0.00146
421.43040,0.00189
422.39477,0.00204
423.35914,0.00201
424.32351,0.00199
425.28788,0.00217
426.25225,0.00257
427.21663,0.00301
428.18100,0.00332
429.14537,0.00339
430.10974,0.00324
431.07411,0.00292
432.03848,0.00252
433.00286,0.00211
433.96723,0.00175
434.93160,0.00146
435.89597,0.00128
436.86034,0.00123
437.82471,0.00129
438.78909,0.00138
439.75346,0.00146
440.71783,0.00155
441.68220,0.00168
442.64657,0.00183
443.61094,0.00194
444.57532,0.00196
445.53969,0.00187
446.50406,0.00166
447.46843,0.00142
448.43280,0.00124
449.39717,0.00121
450.36155,0.00131
451.32592,0.00147
452.29029,0.00166
453.25466,0.00190
454.21903,0.00226
455.18340,0.00279
456.14777,0.00342
457.11215,0.00397
458.07652,0.00420
459.04089,0.00401
460.00526,0.00347
460.96963,0.00277
461.93400,0.00205
462.89838,0.00143
463.86275,0.00100
464.82712,0.00083
465.79149,0.00092
466.75586,0.00112
467.72023,0.00126
468.68461,0.00121
469.64898,0.00091
470.61335,0.00045
471.57772,-0.00001
472.54209,-0.00031
473.50646,-0.00036
474.47084,-0.00016
475.43521,0.00026
476.39958,0.00079
477.36395,0.00132
478.32832,0.00172
479.29269,0.00194
480.25707,0.00200
481.22144,0.00195
482.18581,0.00184
483.15018,0.00173
484.11455,0.00162
485.07892,0.00154
486.04329,0.00150
487.00767,0.00154
487.97204,0.00162
488.93641,0.00171
489.90078,0.00179
490.86515,0.00188
491.82952,0.00204
492.79390,0.00223
493.75827,0.00240
494.72264,0.00250
495.68701,0.00249
496.65138,0.00243
497.61575,0.00239
498.58013,0.00246
499.54450,0.00267
500.50887,0.00293
501.47324,0.00311
502.43761,0.00311
503.40198,0.00294
504.36636,0.00269
505.33073,0.00246
506.29510,0.00235
507.25947,0.00238
508.22384,0.00249
509.18821,0.00263
510.15259,0.00276
511.11696,0.00285
512.08133,0.00285
513.04570,0.00274
514.01007,0.00253
514.97444,0.00230
515.93881,0.00214
516.90319,0.00215
517.86756,0.00236
518.83193,0.00272
519.79630,0.00311
520.76067,0.00346
521.72504,0.00376
522.68942,0.00401
523.65379,0.00422
524.61816,0.00437
525.58253,0.00442
526.54690,0.00437
527.51127,0.00425
528.47565,0.00410
529.44002,0.00400
530.40439,0.00398
531.36876,0.00403
532.33313,0.00412
533.29750,0.00421
534.26188,0.00428
535.22625,0.00432
536.19062,0.00431
537.15499,0.00429
538.11936,0.00429
539.08373,0.00431
540.04811,0.00436
541.01248,0.00442
541.97685,0.00447
542.94122,0.00451
543.90559,0.00451
544.86996,0.00449
545.83434,0.00445
546.79871,0.00440
547.76308,0.00431
548.72745,0.00418
549.69182,0.00403
550.65619,0.00385
551.62056,0.00365
552.58494,0.00345
553.54931,0.00327
554.51368,0.00309
555.47805,0.00292
556.44242,0.00276
557.40679,0.00263
558.37117,0.00252
559.33554,0.00244
560.29991,0.00237
561.26428,0.00228
562.22865,0.00211
563.19302,0.00187
564.15740,0.00158
565.12177,0.00130
566.08614,0.00108
567.05051,0.00092
568.01488,0.00082
568.97925,0.00076
569.94363,0.00070
570.90800,0.00064
571.87237,0.00060
572.83674,0.00062
573.80111,0.00070
574.76548,0.00081
575.72986,0.00093
576.69423,0.00103
577.65860,0.00109
578.62297,0.00109
579.58734,0.00104
580.55171,0.00091
581.51608,0.00071
582.48046,0.00043
583.44483,0.00010
584.40920,-0.00024
585.37357,-0.00055
586.33794,-0.00079
587.30231,-0.00094
588.26669,-0.00103
589.23106,-0.00108
590.19543,-0.00115
591.15980,-0.00127
592.12417,-0.00144
593.08854,-0.00165
594.05292,-0.00186
595.01729,-0.00202
595.98166,-0.00214
596.94603,-0.00224
597.91040,-0.00238
598.87477,-0.00261
599.83915,-0.00293
600.80352,-0.00331
601.76789,-0.00366
602.73226,-0.00390
603.69663,-0.00402
604.66100,-0.00407
605.62538,-0.00415
606.58975,-0.00433
607.55412,-0.00457
608.51849,-0.00481
609.48286,-0.00495
610.44723,-0.00495
611.41161,-0.00483
612.37598,-0.00467
613.34035,-0.00456
614.30472,-0.00452
615.26909,-0.00452
616.23346,-0.00449
617.19783,-0.00440
618.16221,-0.00424
619.12658,-0.00406
620.09095,-0.00396
621.05532,-0.00399
622.01969,-0.00414
622.98406,-0.00432
623.94844,-0.00443
624.91281,-0.00442
625.87718,-0.00427
626.84155,-0.00404
627.80592,-0.00378
628.77029,-0.00354
629.73467,-0.00337
630.69904,-0.00325
631.66341,-0.00320
632.62778,-0.00319
633.59215,-0.00320
634.55652,-0.00321
635.52090,-0.00321
636.48527,-0.00322
637.44964,-0.00325
638.41401,-0.00328
639.37838,-0.00333
640.34275,-0.00338
641.30713,-0.00344
642.27150,-0.00350
643.23587,-0.00360
644.20024,-0.00377
645.16461,-0.00401
646.12898,-0.00427
647.09335,-0.00452
648.05773,-0.00471
649.02210,-0.00479
649.98647,-0.00477
650.95084,-0.00470
651.91521,-0.00467
652.87958,-0.00472
653.84396,-0.00483
654.80833,-0.00497
655.77270,-0.00510
656.73707,-0.00524
657.70144,-0.00537
658.66581,-0.00551
659.63019,-0.00564
660.59456,-0.00578
661.55893,-0.00591
662.52330,-0.00605
663.48767,-0.00618
664.45204,-0.00631
665.41642,-0.00645
666.38079,-0.00659
667.34516,-0.00672
668.30953,-0.00685
669.27390,-0.00699
670.23827,-0.00712
671.20265,-0.00726
672.16702,-0.00739
673.13139,-0.00753
674.09576,-0.00766
675.06013,-0.00780
676.02450,-0.00793
676.98887,-0.00807
677.95325,-0.00820
678.91762,-0.00834
679.88199,-0.00847
680.84636,-0.00860
681.81073,-0.00875
682.77510,-0.00887
683.73948,-0.00897
684.70385,-0.00907
685.66822,-0.00921
686.63259,-0.00940
687.59696,-0.00961
688.56133,-0.00981
689.52571,-0.01001
690.49008,-0.01017
691.45445,-0.01027
692.41882,-0.01028
693.38319,-0.01021
694.34756,-0.01011
695.31194,-0.01001
696.27631,-0.00996
697.24068,-0.00998
698.20505,-0.01008
699.16942,-0.01021
700.13379,-0.01035
701.09817,-0.01050
702.06254,-0.01066
703.02691,-0.01086
703.99128,-0.01111
704.95565,-0.01140
705.92002,-0.01173
706.88440,-0.01208
707.84877,-0.01242
708.81314,-0.01278
709.77751,-0.01318
710.74188,-0.01360
711.70625,-0.01402
712.67062,-0.01444
713.63500,-0.01484
714.59937,-0.01521
715.56374,-0.01554
716.52811,-0.01584
717.49248,-0.01610
718.45685,-0.01633
719.42123,-0.01652
720.38560,-0.01669
721.34997,-0.01686
722.31434,-0.01704
723.27871,-0.01726
724.24308,-0.01753
725.20746,-0.01786
726.17183,-0.01821
727.13620,-0.01857
728.10057,-0.01889
729.06494,-0.01917
730.02931,-0.01944
730.99369,-0.01974
731.95806,-0.02007
732.92243,-0.02043
733.88680,-0.02077
734.85117,-0.02107
735.81554,-0.02132
736.77992,-0.02155
737.74429,-0.02176
738.70866,-0.02192
739.67303,-0.02204
740.63740,-0.02212
741.60177,-0.02219
742.56614,-0.02227
743.53052,-0.02238
744.49489,-0.02250
745.45926,-0.02261
746.42363,-0.02273
747.38800,-0.02285
748.35237,-0.02302
749.31675,-0.02324
750.28112,-0.02351
751.24549,-0.02381
752.20986,-0.02410
753.17423,-0.02435
754.13860,-0.02455
755.10298,-0.02472
756.06735,-0.02489
757.03172,-0.02508
757.99609,-0.02530
758.96046,-0.02554
759.92483,-0.02580
760.88921,-0.02604
761.85358,-0.02625
762.81795,-0.02643
763.78232,-0.02660
764.74669,-0.02678
765.71106,-0.02697
766.67544,-0.02720
767.63981,-0.02746
768.60418,-0.02773
769.56855,-0.02801
770.53292,-0.02828
771.49729,-0.02852
772.46167,-0.02871
773.42604,-0.02882
774.39041,-0.02884
775.35478,-0.02876
776.31915,-0.02859
777.28352,-0.02836
778.24789,-0.02813
779.21227,-0.02795
780.17664,-0.02786
781.14101,-0.02790
782.10538,-0.02806
783.06975,-0.02832
784.03412,-0.02864
784.99850,-0.02895
785.96287,-0.02922
786.92724,-0.02942
787.89161,-0.02956
788.85598,-0.02967
789.82035,-0.02977
790.78473,-0.02989
791.74910,-0.03002
792.71347,-0.03015
793.67784,-0.03026
794.64221,-0.03033
795.60658,-0.03039
796.57096,-0.03045
797.53533,-0.03055
798.49970,-0.03070
799.46407,-0.03091
800.42844,-0.03113
801.39281,-0.03136
802.35719,-0.03157
803.32156,-0.03176
804.28593,-0.03193
805.25030,-0.03210
806.21467,-0.03225
807.17904,-0.03238
808.14341,-0.03247
809.10779,-0.03254
810.07216,-0.03260
811.03653,-0.03268
812.00090,-0.03277
812.96527,-0.03288
813.92964,-0.03302
814.89402,-0.03317
815.85839,-0.03334
816.82276,-0.03354
817.78713,-0.03375
818.75150,-0.03395
819.71587,-0.03410
820.68025,-0.03420
821.64462,-0.03425
822.60899,-0.03431
823.57336,-0.03442
824.53773,-0.03459
825.50210,-0.03482
826.46648,-0.03506
827.43085,-0.03527
828.39522,-0.03546
829.35959,-0.03567
830.32396,-0.03589
831.28833,-0.03614
832.25271,-0.03641
833.21708,-0.03669
834.18145,-0.03696
835.14582,-0.03719
836.11019,-0.03740
837.07456,-0.03759
838.03893,-0.03779
839.00331,-0.03799
839.96768,-0.03821
840.93205,-0.03842
841.89642,-0.03862
842.86079,-0.03879
843.82516,-0.03892
844.78954,-0.03900
845.75391,-0.03901
846.71828,-0.03898
847.68265,-0.03892
848.64702,-0.03885
849.61139,-0.03877
850.57577,-0.03867
851.54014,-0.03855
852.50451,-0.03842
853.46888,-0.03827
854.43325,-0.03811
855.39762,-0.03795
856.36200,-0.03781
857.32637,-0.03769
858.29074,-0.03758
859.25511,-0.03751
860.21948,-0.03748
861.18385,-0.03750
862.14823,-0.03760
863.11260,-0.03777
864.07697,-0.03802
865.04134,-0.03832
866.00571,-0.03861
866.97008,-0.03887
867.93446,-0.03909
868.89883,-0.03927
869.86320,-0.03941
870.82757,-0.03953
871.79194,-0.03966
872.75631,-0.03979
873.72068,-0.03992
874.68506,-0.04006
875.64943,-0.04018
876.61380,-0.04027
877.57817,-0.04032
878.54254,-0.04034
879.50691,-0.04036
880.47129,-0.04041
881.43566,-0.04052
882.40003,-0.04069
883.36440,-0.04092
884.32877,-0.04119
885.29314,-0.04147
886.25752,-0.04173
887.22189,-0.04198
888.18626,-0.04219
889.15063,-0.04237
890.11500,-0.04255
891.07937,-0.04273
892.04375,-0.04292
893.00812,-0.04311
893.97249,-0.04328
894.93686,-0.04344
895.90123,-0.04359
896.86560,-0.04374
897.82998,-0.04388
898.79435,-0.04402
899.75872,-0.04414
900.72309,-0.04422
901.68746,-0.04427
902.65183,-0.04429
903.61620,-0.04428
904.58058,-0.04422
905.54495,-0.04410
906.50932,-0.04392
907.47369,-0.04369
908.43806,-0.04343
909.40243,-0.04317
910.36681,-0.04292
911.33118,-0.04268
912.29555,-0.04245
913.25992,-0.04228
914.22429,-0.04217
915.18866,-0.04216
916.15304,-0.04224
917.11741,-0.04239
918.08178,-0.04260
919.04615,-0.04283
920.01052,-0.04308
920.97489,-0.04334
921.93927,-0.04362
922.90364,-0.04390
923.86801,-0.04415
924.83238,-0.04437
925.79675,-0.04458
926.76112,-0.04476
927.72550,-0.04492
928.68987,-0.04504
929.65424,-0.04512
930.61861,-0.04516
931.58298,-0.04519
932.54735,-0.04525
933.51173,-0.04534
934.47610,-0.04545
935.44047,-0.04555
936.40484,-0.04561
937.36921,-0.04565
938.33358,-0.04569
939.29795,-0.04577
940.26233,-0.04590
941.22670,-0.04606
942.19107,-0.04623
943.15544,-0.04635
944.11981,-0.04643
945.08418,-0.04646
946.04856,-0.04644
947.01293,-0.04638
947.97730,-0.04629
948.94167,-0.04617
949.90604,-0.04605
950.87041,-0.04593
951.83479,-0.04582
952.79916,-0.04569
953.76353,-0.04551
954.72790,-0.04526
955.69227,-0.04492
956.65664,-0.04453
957.62102,-0.04412
958.58539,-0.04371
959.54976,-0.04332
960.51413,-0.04294
961.47850,-0.04258
962.44287,-0.04221
963.40725,-0.04186
964.37162,-0.04153
965.33599,-0.04124
966.30036,-0.04102
967.26473,-0.04089
968.22910,-0.04087
969.19347,-0.04094
970.15785,-0.04108
971.12222,-0.04129
972.08659,-0.04154
973.05096,-0.04180
974.01533,-0.04203
974.97970,-0.04224
975.94408,-0.04241
976.90845,-0.04256
977.87282,-0.04271
978.83719,-0.04286
979.80156,-0.04300
980.76593,-0.04311
981.73031,-0.04315
982.69468,-0.04313
983.65905,-0.04309
984.62342,-0.04303
985.58779,-0.04297
986.55216,-0.04292
987.51654,-0.04285
988.48091,-0.04276
989.44528,-0.04262
990.40965,-0.04245
991.37402,-0.04228
992.33839,-0.04212
993.30277,-0.04200
994.26714,-0.04194
995.23151,-0.04192
996.19588,-0.04194
997.16025,-0.04199
998.12462,-0.04204
999.08899,-0.04212
1000.05337,-0.04219
1001.01774,-0.04224
1001.98211,-0.04227
1002.94648,-0.04226
1003.91085,-0.04223
1004.87522,-0.04219
1005.83960,-0.04215
1006.80397,-0.04212
1007.76834,-0.04208
1008.73271,-0.04200
1009.69708,-0.04186
1010.66145,-0.04166
1011.62583,-0.04140
1012.59020,-0.04110
1013.55457,-0.04078
1014.51894,-0.04044
1015.48331,-0.04007
1016.44768,-0.03966
1017.41206,-0.03922
1018.37643,-0.03877
1019.34080,-0.03833
1020.30517,-0.03788
1021.26954,-0.03743
1022.23391,-0.03695
1023.19829,-0.03643
1024.16266,-0.03587
1025.12703,-0.03531
1026.09140,-0.03476
1027.05577,-0.03424
1028.02014,-0.03374
1028.98452,-0.03324
1029.94889,-0.03273
1030.91326,-0.03221
1031.87763,-0.03167
1032.84200,-0.03114
1033.80637,-0.03064
1034.77074,-0.03018
1035.73512,-0.02975
1036.69949,-0.02932
1037.66386,-0.02889
1038.62823,-0.02844
1039.59260,-0.02795
1040.55697,-0.02744
1041.52135,-0.02691
1042.48572,-0.02634
1043.45009,-0.02574
1044.41446,-0.02509
1045.37883,-0.02444
1046.34320,-0.02378
1047.30758,-0.02313
1048.27195,-0.02250
1049.23632,-0.02189
1050.20069,-0.02129
1051.16506,-0.02068
1052.12943,-0.02004
1053.09381,-0.01938
1054.05818,-0.01868
1055.02255,-0.01795
1055.98692,-0.01724
1056.95129,-0.01656
1057.91566,-0.01591
1058.88004,-0.01530
1059.84441,-0.01475
1060.80878,-0.01426
1061.77315,-0.01386
1062.73752,-0.01354
1063.70189,-0.01328
1064.66626,-0.01305
1065.63064,-0.01283
1066.59501,-0.01260
1067.55938,-0.01237
1068.52375,-0.01211
1069.48812,-0.01181
1070.45249,-0.01146
1071.41687,-0.01108
1072.38124,-0.01066
1073.34561,-0.01023
1074.30998,-0.00976
1075.27435,-0.00926
1076.23872,-0.00873
1077.20310,-0.00819
1078.16747,-0.00763
1079.13184,-0.00704
1080.09621,-0.00645
1081.06058,-0.00585
1082.02495,-0.00527
1082.98933,-0.00478
1083.95370,-0.00441
1084.91807,-0.00417
1085.88244,-0.00407
1086.84681,-0.00410
1087.81118,-0.00426
1088.77556,-0.00451
1089.73993,-0.00484
1090.70430,-0.00522
1091.66867,-0.00563
1092.63304,-0.00602
1093.59741,-0.00641
1094.56179,-0.00678
1095.52616,-0.00714
1096.49053,-0.00747
1097.45490,-0.00774
1098.41927,-0.00797
1099.38364,-0.00817
1100.34801,-0.00838
1101.31239,-0.00865
1102.27676,-0.00900
1103.24113,-0.00941
1104.20550,-0.00982
1105.16987,-0.01019
1106.13424,-0.01051
1107.09862,-0.01080
1108.06299,-0.01112
1109.02736,-0.01147
1109.99173,-0.01187
1110.95610,-0.01228
1111.92047,-0.01264
1112.88485,-0.01293
1113.84922,-0.01316
1114.81359,-0.01335
1115.77796,-0.01355
1116.74233,-0.01378
1117.70670,-0.01407
1118.67108,-0.01441
1119.63545,-0.01480
1120.59982,-0.01521
1121.56419,-0.01566
1122.52856,-0.01617
1123.49293,-0.01674
1124.45731,-0.01735
1125.42168,-0.01800
1126.38605,-0.01866
1127.35042,-0.01932
1128.31479,-0.01998
1129.27916,-0.02065
1130.24353,-0.02132
1131.20791,-0.02198
1132.17228,-0.02262
1133.13665,-0.02327
1134.10102,-0.02396
1135.06539,-0.02469
1136.02976,-0.02545
1136.99414,-0.02620
1137.95851,-0.02690
1138.92288,-0.02751
1139.88725,-0.02801
1140.85162,-0.02841
1141.81599,-0.02874
1142.78037,-0.02902
1143.74474,-0.02927
1144.70911,-0.02950
1145.67348,-0.02971
1146.63785,-0.02988
1147.60222,-0.03000
1148.56660,-0.03007
1149.53097,-0.03011
1150.49534,-0.03013
1151.45971,-0.03013
1152.42408,-0.03015
1153.38845,-0.03019
1154.35283,-0.03027
1155.31720,-0.03038
1156.28157,-0.03051
1157.24594,-0.03063
1158.21031,-0.03071
1159.17468,-0.03073
1160.13905,-0.03071
1161.10343,-0.03067
1162.06780,-0.03063
1163.03217,-0.03060
1163.99654,-0.03058
1164.96091,-0.03054
1165.92528,-0.03046
1166.88966,-0.03035
1167.85403,-0.03022
1168.81840,-0.03011
1169.78277,-0.03005
1170.74714,-0.03003
1171.71151,-0.03004
1172.67589,-0.03007
1173.64026,-0.03011
1174.60463,-0.03019
1175.56900,-0.03034
1176.53337,-0.03056
1177.49774,-0.03084
1178.46212,-0.03112
1179.42649,-0.03136
1180.39086,-0.03155
1181.35523,-0.03169
1182.31960,-0.03180
1183.28397,-0.03190
1184.24835,-0.03200
1185.21272,-0.03210
1186.17709,-0.03218
1187.14146,-0.03224
1188.10583,-0.03224
1189.07020,-0.03218
1190.03458,-0.03204
1190.99895,-0.03185
1191.96332,-0.03161
1192.92769,-0.03134
1193.89206,-0.03103
1194.85643,-0.03070
1195.82080,-0.03034
1196.78518,-0.02996
1197.74955,-0.02953
1198.71392,-0.02904
1199.67829,-0.02851
1200.64266,-0.02792
1201.60703,-0.02728
1202.57141,-0.02662
1203.53578,-0.02596
1204.50015,-0.02527
1205.46452,-0.02452
1206.42889,-0.02369
1207.39326,-0.02280
1208.35764,-0.02186
1209.32201,-0.02093
1210.28638,-0.02004
1211.25075,-0.01919
1212.21512,-0.01834
1213.17949,-0.01745
1214.14387,-0.01650
1215.10824,-0.01552
1216.07261,-0.01455
1217.03698,-0.01362
1218.00135,-0.01275
1218.96572,-0.01194
1219.93010,-0.01116
1220.89447,-0.01036
1221.85884,-0.00956
1222.82321,-0.00876
1223.78758,-0.00797
1224.75195,-0.00720
1225.71632,-0.00645
1226.68070,-0.00573
1227.64507,-0.00501
1228.60944,-0.00429
1229.57381,-0.00357
1230.53818,-0.00287
1231.50255,-0.00219
1232.46693,-0.00154
1233.43130,-0.00095
1234.39567,-0.00039
1235.36004,0.00014
1236.32441,0.00065
1237.28878,0.00114
1238.25316,0.00157
1239.21753,0.00190
1240.18190,0.00214
1241.14627,0.00228
1242.11064,0.00235
1243.07501,0.00238
1244.03939,0.00236
1245.00376,0.00226
1245.96813,0.00209
1246.93250,0.00185
1247.89687,0.00157
1248.86124,0.00125
1249.82562,0.00088
1250.78999,0.00045
1251.75436,-0.00003
1252.71873,-0.00056
1253.68310,-0.00112
1254.64747,-0.00169
1255.61185,-0.00226
1256.57622,-0.00285
1257.54059,-0.00350
1258.50496,-0.00421
1259.46933,-0.00495
1260.43370,-0.00569
1261.39807,-0.00642
1262.36245,-0.00709
1263.32682,-0.00771
1264.29119,-0.00828
1265.25556,-0.00883
1266.21993,-0.00938
1267.18430,-0.00991
1268.14868,-0.01043
1269.11305,-0.01095
1270.07742,-0.01142
1271.04179,-0.01185
1272.00616,-0.01224
1272.97053,-0.01260
1273.93491,-0.01292
1274.89928,-0.01319
1275.86365,-0.01340
1276.82802,-0.01356
1277.79239,-0.01371
1278.75676,-0.01386
1279.72114,-0.01405
1280.68551,-0.01427
1281.64988,-0.01450
1282.61425,-0.01472
1283.57862,-0.01491
1284.54299,-0.01508
1285.50737,-0.01523
1286.47174,-0.01534
1287.43611,-0.01542
1288.40048,-0.01547
1289.36485,-0.01552
1290.32922,-0.01557
1291.29359,-0.01565
1292.25797,-0.01576
1293.22234,-0.01588
1294.18671,-0.01597
1295.15108,-0.01606
1296.11545,-0.01613
1297.07982,-0.01619
1298.04420,-0.01624
1299.00857,-0.01628
1299.97294,-0.01632
1300.93731,-0.01634
1301.90168,-0.01635
1302.86605,-0.01635
1303.83043,-0.01635
1304.79480,-0.01638
1305.75917,-0.01643
1306.72354,-0.01652
1307.68791,-0.01665
1308.65228,-0.01679
1309.61666,-0.01691
1310.58103,-0.01702
1311.54540,-0.01711
1312.50977,-0.01720
1313.47414,-0.01729
1314.43851,-0.01739
1315.40289,-0.01750
1316.36726,-0.01762
1317.33163,-0.01775
1318.29600,-0.01791
1319.26037,-0.01812
1320.22474,-0.01834
1321.18911,-0.01854
1322.15349,-0.01871
1323.11786,-0.01885
1324.08223,-0.01897
1325.04660,-0.01907
1326.01097,-0.01917
1326.97534,-0.01926
1327.93972,-0.01935
1328.90409,-0.01940
1329.86846,-0.01941
1330.83283,-0.01939
1331.79720,-0.01935
1332.76157,-0.01931
1333.72595,-0.01931
1334.69032,-0.01934
1335.65469,-0.01938
1336.61906,-0.01941
1337.58343,-0.01942
1338.54780,-0.01944
1339.51218,-0.01947
1340.47655,-0.01951
1341.44092,-0.01957
1342.40529,-0.01964
1343.36966,-0.01970
1344.33403,-0.01974
1345.29841,-0.01978
1346.26278,-0.01985
1347.22715,-0.01993
1348.19152,-0.01999
1349.15589,-0.02002
1350.12026,-0.01999
1351.08464,-0.01993
1352.04901,-0.01986
1353.01338,-0.01980
1353.97775,-0.01974
1354.94212,-0.01963
1355.90649,-0.01946
1356.87086,-0.01923
1357.83524,-0.01900
1358.79961,-0.01877
1359.76398,-0.01854
1360.72835,-0.01829
1361.69272,-0.01797
1362.65709,-0.01757
1363.62147,-0.01712
1364.58584,-0.01664
1365.55021,-0.01618
1366.51458,-0.01572
1367.47895,-0.01526
1368.44332,-0.01481
1369.40770,-0.01436
1370.37207,-0.01392
1371.33644,-0.01346
1372.30081,-0.01301
1373.26518,-0.01256
1374.22955,-0.01211
1375.19393,-0.01165
1376.15830,-0.01118
1377.12267,-0.01068
1378.08704,-0.01014
1379.05141,-0.00957
1380.01578,-0.00898
1380.98016,-0.00839
1381.94453,-0.00778
1382.90890,-0.00715
1383.87327,-0.00649
1384.83764,-0.00581
1385.80201,-0.00515
1386.76638,-0.00452
1387.73076,-0.00398
1388.69513,-0.00353
1389.65950,-0.00312
1390.62387,-0.00273
1391.58824,-0.00231
1392.55261,-0.00187
1393.51699,-0.00143
1394.48136,-0.00100
1395.44573,-0.00065
1396.41010,-0.00039
1397.37447,-0.00021
1398.33884,-0.00009
1399.30322,-0.00001
1400.26759,0.00000
1401.23196,-0.00005
1402.19633,-0.00017
1403.16070,-0.00035
1404.12507,-0.00058
1405.08945,-0.00085
1406.05382,-0.00117
1407.01819,-0.00154
1407.98256,-0.00194
1408.94693,-0.00236
1409.91130,-0.00274
1410.87568,-0.00308
1411.84005,-0.00337
1412.80442,-0.00363
1413.76879,-0.00389
1414.73316,-0.00418
1415.69753,-0.00451
1416.66191,-0.00489
1417.62628,-0.00532
1418.59065,-0.00581
1419.55502,-0.00633
1420.51939,-0.00682
1421.48376,-0.00728
1422.44813,-0.00771
1423.41251,-0.00813
1424.37688,-0.00852
1425.34125,-0.00888
1426.30562,-0.00918
1427.26999,-0.00942
1428.23436,-0.00960
1429.19874,-0.00971
1430.16311,-0.00973
1431.12748,-0.00967
1432.09185,-0.00950
1433.05622,-0.00922
1434.02059,-0.00885
1434.98497,-0.00840
1435.94934,-0.00787
1436.91371,-0.00731
1437.87808,-0.00677
1438.84245,-0.00627
1439.80682,-0.00580
1440.77120,-0.00533
1441.73557,-0.00486
1442.69994,-0.00440
1443.66431,-0.00394
1444.62868,-0.00349
1445.59305,-0.00303
1446.55743,-0.00258
1447.52180,-0.00214
1448.48617,-0.00176
1449.45054,-0.00143
1450.41491,-0.00115
1451.37928,-0.00089
1452.34365,-0.00062
1453.30803,-0.00038
1454.27240,-0.00019
1455.23677,-0.00013
1456.20114,-0.00024
1457.16551,-0.00056
1458.12988,-0.00101
1459.09426,-0.00148
1460.05863,-0.00188
1461.02300,-0.00220
1461.98737,-0.00246
1462.95174,-0.00267
1463.91611,-0.00283
1464.88049,-0.00295
1465.84486,-0.00307
1466.80923,-0.00321
1467.77360,-0.00338
1468.73797,-0.00364
1469.70234,-0.00403
1470.66672,-0.00457
1471.63109,-0.00527
1472.59546,-0.00607
1473.55983,-0.00689
1474.52420,-0.00760
1475.48857,-0.00815
1476.45295,-0.00855
1477.41732,-0.00882
1478.38169,-0.00895
1479.34606,-0.00894
1480.31043,-0.00880
1481.27480,-0.00858
1482.23917,-0.00829
1483.20355,-0.00795
1484.16792,-0.00754
1485.13229,-0.00707
1486.09666,-0.00648
1487.06103,-0.00575
1488.02540,-0.00487
1488.98978,-0.00389
1489.95415,-0.00283
1490.91852,-0.00176
1491.88289,-0.00076
1492.84726,0.00018
1493.81163,0.00111
1494.77601,0.00212
1495.74038,0.00324
1496.70475,0.00446
1497.66912,0.00573
1498.63349,0.00699
1499.59786,0.00821
1500.56224,0.00940
1501.52661,0.01060
1502.49098,0.01186
1503.45535,0.01320
1504.41972,0.01469
1505.38409,0.01647
1506.34847,0.01857
1507.31284,0.02085
1508.27721,0.02306
1509.24158,0.02510
1510.20595,0.02701
1511.17032,0.02895
1512.13470,0.03097
1513.09907,0.03305
1514.06344,0.03513
1515.02781,0.03719
1515.99218,0.03920
1516.95655,0.04112
1517.92092,0.04290
1518.88530,0.04456
1519.84967,0.04616
1520.81404,0.04777
1521.77841,0.04940
1522.74278,0.05099
1523.70715,0.05252
1524.67153,0.05404
1525.63590,0.05562
1526.60027,0.05729
1527.56464,0.05901
1528.52901,0.06067
1529.49338,0.06224
1530.45776,0.06374
1531.42213,0.06527
1532.38650,0.06692
1533.35087,0.06869
1534.31524,0.07047
1535.27961,0.07211
1536.24399,0.07355
1537.20836,0.07484
1538.17273,0.07608
1539.13710,0.07734
1540.10147,0.07859
1541.06584,0.07967
1542.03022,0.08046
1542.99459,0.08094
1543.95896,0.08115
1544.92333,0.08116
1545.88770,0.08097
1546.85207,0.08053
1547.81644,0.07986
1548.78082,0.07895
1549.74519,0.07778
1550.70956,0.07639
1551.67393,0.07481
1552.63830,0.07309
1553.60267,0.07122
1554.56705,0.06925
1555.53142,0.06728
1556.49579,0.06526
1557.46016,0.06295
1558.42453,0.06017
1559.38890,0.05710
1560.35328,0.05428
1561.31765,0.05210
1562.28202,0.05052
1563.24639,0.04920
1564.21076,0.04788
1565.17513,0.04655
1566.13951,0.04526
1567.10388,0.04399
1568.06825,0.04268
1569.03262,0.04134
1569.99699,0.04003
1570.96136,0.03884
1571.92574,0.03784
1572.89011,0.03703
1573.85448,0.03630
1574.81885,0.03552
1575.78322,0.03458
1576.74759,0.03353
1577.71197,0.03250
1578.67634,0.03158
1579.64071,0.03079
1580.60508,0.03012
1581.56945,0.02954
1582.53382,0.02905
1583.49819,0.02864
1584.46257,0.02832
1585.42694,0.02808
1586.39131,0.02792
1587.35568,0.02782
1588.32005,0.02778
1589.28442,0.02782
1590.24880,0.02795
1591.21317,0.02817
1592.17754,0.02847
1593.14191,0.02883
1594.10628,0.02926
1595.07065,0.02975
1596.03503,0.03027
1596.99940,0.03079
1597.96377,0.03132
1598.92814,0.03187
1599.89251,0.03249
1600.85688,0.03322
1601.82126,0.03407
1602.78563,0.03500
1603.75000,0.03598
1604.71437,0.03697
1605.67874,0.03797
1606.64311,0.03900
1607.60749,0.04013
1608.57186,0.04142
1609.53623,0.04288
1610.50060,0.04449
1611.46497,0.04623
1612.42934,0.04807
1613.39371,0.05002
1614.35809,0.05216
1615.32246,0.05458
1616.28683,0.05730
1617.25120,0.06024
1618.21557,0.06322
1619.17994,0.06615
1620.14432,0.06912
1621.10869,0.07236
1622.07306,0.07604
1623.03743,0.08015
1624.00180,0.08453
1624.96617,0.08903
1625.93055,0.09363
1626.89492,0.09840
1627.85929,0.10338
1628.82366,0.10851
1629.78803,0.11363
1630.75240,0.11851
1631.71678,0.12306
1632.68115,0.12738
1633.64552,0.13170
1634.60989,0.13617
1635.57426,0.14064
1636.53863,0.14479
1637.50301,0.14829
1638.46738,0.15111
1639.43175,0.15344
1640.39612,0.15552
1641.36049,0.15749
1642.32486,0.15938
1643.28923,0.16124
1644.25361,0.16313
1645.21798,0.16514
1646.18235,0.16727
1647.14672,0.16940
1648.11109,0.17136
1649.07546,0.17306
1650.03984,0.17454
1651.00421,0.17601
1651.96858,0.17758
1652.93295,0.17912
1653.89732,0.18032
1654.86169,0.18090
1655.82607,0.18081
1656.79044,0.18021
1657.75481,0.17923
1658.71918,0.17786
1659.68355,0.17601
1660.64792,0.17360
1661.61230,0.17060
1662.57667,0.16710
1663.54104,0.16327
1664.50541,0.15940
1665.46978,0.15567
1666.43415,0.15207
1667.39853,0.14835
1668.36290,0.14434
1669.32727,0.14009
1670.29164,0.13592
1671.25601,0.13211
1672.22038,0.12869
1673.18476,0.12542
1674.14913,0.12205
1675.11350,0.11850
1676.07787,0.11490
1677.04224,0.11147
1678.00661,0.10831
1678.97098,0.10537
1679.93536,0.10255
1680.89973,0.09976
1681.86410,0.09683
1682.82847,0.09355
1683.79284,0.08976
1684.75721,0.08568
1685.72159,0.08180
1686.68596,0.07849
1687.65033,0.07566
1688.61470,0.07295
1689.57907,0.07011
1690.54344,0.06718
1691.50782,0.06431
1692.47219,0.06150
1693.43656,0.05863
1694.40093,0.05555
1695.36530,0.05227
1696.32967,0.04902
1697.29405,0.04599
1698.25842,0.04313
1699.22279,0.04018
1700.18716,0.03700
1701.15153,0.03381
1702.11590,0.03103
1703.08028,0.02881
1704.04465,0.02695
1705.00902,0.02518
1705.97339,0.02341
1706.93776,0.02171
1707.90213,0.02015
1708.86650,0.01874
1709.83088,0.01748
1710.79525,0.01632
1711.75962,0.01520
1712.72399,0.01408
1713.68836,0.01296
1714.65273,0.01181
1715.61711,0.01052
1716.58148,0.00905
1717.54585,0.00748
1718.51022,0.00596
1719.47459,0.00462
1720.43896,0.00351
1721.40334,0.00259
1722.36771,0.00178
1723.33208,0.00100
1724.29645,0.00021
1725.26082,-0.00053
1726.22519,-0.00120
1727.18957,-0.00180
1728.15394,-0.00235
1729.11831,-0.00283
1730.08268,-0.00322
1731.04705,-0.00353
1732.01142,-0.00383
1732.97580,-0.00419
1733.94017,-0.00465
1734.90454,-0.00518
1735.86891,-0.00568
1736.83328,-0.00609
1737.79765,-0.00641
1738.76203,-0.00671
1739.72640,-0.00706
1740.69077,-0.00744
1741.65514,-0.00780
1742.61951,-0.00817
1743.58388,-0.00856
1744.54825,-0.00896
1745.51263,-0.00940
1746.47700,-0.00987
1747.44137,-0.01038
1748.40574,-0.01093
1749.37011,-0.01152
1750.33448,-0.01216
1751.29886,-0.01286
1752.26323,-0.01355
1753.22760,-0.01415
1754.19197,-0.01467
1755.15634,-0.01514
1756.12071,-0.01557
1757.08509,-0.01595
1758.04946,-0.01625
1759.01383,-0.01649
1759.97820,-0.01670
1760.94257,-0.01693
1761.90694,-0.01718
1762.87132,-0.01743
1763.83569,-0.01761
1764.80006,-0.01767
1765.76443,-0.01767
1766.72880,-0.01768
1767.69317,-0.01775
1768.65755,-0.01787
1769.62192,-0.01806
1770.58629,-0.01830
1771.55066,-0.01855
1772.51503,-0.01878
1773.47940,-0.01898
1774.44377,-0.01915
1775.40815,-0.01925
1776.37252,-0.01927
1777.33689,-0.01925
1778.30126,-0.01921
1779.26563,-0.01918
1780.23000,-0.01918
1781.19438,-0.01921
1782.15875,-0.01930
1783.12312,-0.01938
1784.08749,-0.01943
1785.05186,-0.01945
1786.01623,-0.01946
1786.98061,-0.01947
1787.94498,-0.01945
1788.90935,-0.01941
1789.87372,-0.01938
1790.83809,-0.01938
1791.80246,-0.01941
1792.76684,-0.01950
1793.73121,-0.01963
1794.69558,-0.01975
1795.65995,-0.01983
1796.62432,-0.01986
1797.58869,-0.01986
1798.55307,-0.01984
1799.51744,-0.01981
1800.48181,-0.01982
1801.44618,-0.01987
1802.41055,-0.01994
1803.37492,-0.01998
1804.33929,-0.01998
1805.30367,-0.01995
1806.26804,-0.01990
1807.23241,-0.01984
1808.19678,-0.01981
1809.16115,-0.01982
1810.12552,-0.01983
1811.08990,-0.01982
1812.05427,-0.01979
1813.01864,-0.01975
1813.98301,-0.01972
1814.94738,-0.01972
1815.91175,-0.01974
1816.87613,-0.01978
1817.84050,-0.01979
1818.80487,-0.01975
1819.76924,-0.01968
1820.73361,-0.01962
1821.69798,-0.01961
1822.66236,-0.01966
1823.62673,-0.01976
1824.59110,-0.01986
1825.55547,-0.01990
1826.51984,-0.01985
1827.48421,-0.01976
1828.44859,-0.01972
1829.41296,-0.01973
1830.37733,-0.01977
1831.34170,-0.01978
1832.30607,-0.01976
1833.27044,-0.01969
1834.23482,-0.01963
1835.19919,-0.01961
1836.16356,-0.01964
1837.12793,-0.01968
1838.09230,-0.01966
1839.05667,-0.01959
1840.02104,-0.01946
1840.98542,-0.01933
1841.94979,-0.01924
1842.91416,-0.01925
1843.87853,-0.01938
1844.84290,-0.01957
1845.80727,-0.01973
1846.77165,-0.01980
1847.73602,-0.01980
1848.70039,-0.01975
1849.66476,-0.01967
1850.62913,-0.01958
1851.59350,-0.01950
1852.55788,-0.01940
1853.52225,-0.01930
1854.48662,-0.01921
1855.45099,-0.01916
1856.41536,-0.01912
1857.37973,-0.01911
1858.34411,-0.01910
1859.30848,-0.01909
1860.27285,-0.01906
1861.23722,-0.01900
1862.20159,-0.01894
1863.16596,-0.01889
1864.13034,-0.01882
1865.09471,-0.01872
1866.05908,-0.01861
1867.02345,-0.01852
1867.98782,-0.01851
1868.95219,-0.01859
1869.91656,-0.01872
1870.88094,-0.01886
1871.84531,-0.01894
1872.80968,-0.01893
1873.77405,-0.01885
1874.73842,-0.01878
1875.70279,-0.01873
1876.66717,-0.01870
1877.63154,-0.01870
1878.59591,-0.01868
1879.56028,-0.01863
1880.52465,-0.01853
1881.48902,-0.01844
1882.45340,-0.01839
1883.41777,-0.01841
1884.38214,-0.01845
1885.34651,-0.01847
1886.31088,-0.01845
1887.27525,-0.01838
1888.23963,-0.01831
1889.20400,-0.01830
1890.16837,-0.01835
1891.13274,-0.01843
1892.09711,-0.01845
1893.06148,-0.01840
1894.02586,-0.01829
1894.99023,-0.01815
1895.95460,-0.01801
1896.91897,-0.01792
1897.88334,-0.01787
1898.84771,-0.01783
1899.81209,-0.01778
1900.77646,-0.01772
1901.74083,-0.01768
1902.70520,-0.01766
1903.66957,-0.01764
1904.63394,-0.01761
1905.59831,-0.01759
1906.56269,-0.01756
1907.52706,-0.01753
1908.49143,-0.01752
1909.45580,-0.01756
1910.42017,-0.01763
1911.38454,-0.01770
1912.34892,-0.01773
1913.31329,-0.01771
1914.27766,-0.01763
1915.24203,-0.01753
1916.20640,-0.01745
1917.17077,-0.01743
1918.13515,-0.01743
1919.09952,-0.01740
1920.06389,-0.01733
1921.02826,-0.01722
1921.99263,-0.01711
1922.95700,-0.01702
1923.92138,-0.01699
1924.88575,-0.01702
1925.85012,-0.01707
1926.81449,-0.01708
1927.77886,-0.01706
1928.74323,-0.01700
1929.70761,-0.01693
1930.67198,-0.01686
1931.63635,-0.01681
1932.60072,-0.01680
1933.56509,-0.01679
1934.52946,-0.01677
1935.49383,-0.01676
1936.45821,-0.01675
1937.42258,-0.01676
1938.38695,-0.01675
1939.35132,-0.01673
1940.31569,-0.01668
1941.28006,-0.01660
1942.24444,-0.01650
1943.20881,-0.01641
1944.17318,-0.01638
1945.13755,-0.01639
1946.10192,-0.01641
1947.06629,-0.01644
1948.03067,-0.01648
1948.99504,-0.01649
1949.95941,-0.01648
1950.92378,-0.01644
1951.88815,-0.01639
1952.85252,-0.01633
1953.81690,-0.01623
1954.78127,-0.01612
1955.74564,-0.01600
1956.71001,-0.01589
1957.67438,-0.01579
1958.63875,-0.01571
1959.60313,-0.01569
1960.56750,-0.01569
1961.53187,-0.01569
1962.49624,-0.01568
1963.46061,-0.01567
1964.42498,-0.01568
1965.38935,-0.01570
1966.35373,-0.01575
1967.31810,-0.01580
1968.28247,-0.01579
1969.24684,-0.01571
1970.21121,-0.01560
1971.17558,-0.01551
1972.13996,-0.01545
1973.10433,-0.01541
1974.06870,-0.01538
1975.03307,-0.01534
1975.99744,-0.01529
1976.96181,-0.01525
1977.92619,-0.01525
1978.89056,-0.01530
1979.85493,-0.01535
1980.81930,-0.01535
1981.78367,-0.01531
1982.74804,-0.01526
1983.71242,-0.01523
1984.67679,-0.01523
1985.64116,-0.01527
1986.60553,-0.01531
1987.56990,-0.01530
1988.53427,-0.01523
1989.49865,-0.01511
1990.46302,-0.01498
1991.42739,-0.01487
1992.39176,-0.01479
1993.35613,-0.01475
1994.32050,-0.01473
1995.28488,-0.01471
1996.24925,-0.01469
1997.21362,-0.01468
1998.17799,-0.01471
1999.14236,-0.01474
2000.10673,-0.01476
2001.07110,-0.01474
2002.03548,-0.01471
2002.99985,-0.01468
2003.96422,-0.01464
2004.92859,-0.01463
2005.89296,-0.01466
2006.85733,-0.01470
2007.82171,-0.01472
2008.78608,-0.01469
2009.75045,-0.01463
2010.71482,-0.01454
2011.67919,-0.01445
2012.64356,-0.01437
2013.60794,-0.01432
2014.57231,-0.01426
2015.53668,-0.01417
2016.50105,-0.01406
2017.46542,-0.01396
2018.42979,-0.01391
2019.39417,-0.01391
2020.35854,-0.01396
2021.32291,-0.01402
2022.28728,-0.01404
2023.25165,-0.01400
2024.21602,-0.01391
2025.18040,-0.01381
2026.14477,-0.01373
2027.10914,-0.01368
2028.07351,-0.01368
2029.03788,-0.01371
2030.00225,-0.01373
2030.96662,-0.01373
2031.93100,-0.01371
2032.89537,-0.01371
2033.85974,-0.01369
2034.82411,-0.01364
2035.78848,-0.01355
2036.75285,-0.01346
2037.71723,-0.01337
2038.68160,-0.01331
2039.64597,-0.01329
2040.61034,-0.01327
2041.57471,-0.01320
2042.53908,-0.01307
2043.50346,-0.01292
2044.46783,-0.01281
2045.43220,-0.01276
2046.39657,-0.01277
2047.36094,-0.01282
2048.32531,-0.01288
2049.28969,-0.01293
2050.25406,-0.01296
2051.21843,-0.01298
2052.18280,-0.01301
2053.14717,-0.01304
2054.11154,-0.01306
2055.07592,-0.01307
2056.04029,-0.01305
2057.00466,-0.01300
2057.96903,-0.01289
2058.93340,-0.01278
2059.89777,-0.01270
2060.86215,-0.01266
2061.82652,-0.01265
2062.79089,-0.01264
2063.75526,-0.01263
2064.71963,-0.01262
2065.68400,-0.01261
2066.64837,-0.01261
2067.61275,-0.01262
2068.57712,-0.01261
2069.54149,-0.01256
2070.50586,-0.01250
2071.47023,-0.01246
2072.43460,-0.01243
2073.39898,-0.01238
2074.36335,-0.01229
2075.32772,-0.01216
2076.29209,-0.01199
2077.25646,-0.01182
2078.22083,-0.01170
2079.18521,-0.01166
2080.14958,-0.01171
2081.11395,-0.01179
2082.07832,-0.01186
2083.04269,-0.01190
2084.00706,-0.01187
2084.97144,-0.01180
2085.93581,-0.01173
2086.90018,-0.01173
2087.86455,-0.01178
2088.82892,-0.01183
2089.79329,-0.01185
2090.75767,-0.01183
2091.72204,-0.01177
2092.68641,-0.01171
2093.65078,-0.01171
2094.61515,-0.01176
2095.57952,-0.01183
2096.54389,-0.01188
2097.50827,-0.01188
2098.47264,-0.01186
2099.43701,-0.01181
2100.40138,-0.01176
2101.36575,-0.01172
2102.33012,-0.01171
2103.29450,-0.01169
2104.25887,-0.01166
2105.22324,-0.01161
2106.18761,-0.01159
2107.15198,-0.01157
2108.11635,-0.01156
2109.08073,-0.01156
2110.04510,-0.01155
2111.00947,-0.01152
2111.97384,-0.01148
2112.93821,-0.01146
2113.90258,-0.01148
2114.86696,-0.01151
2115.83133,-0.01152
2116.79570,-0.01148
2117.76007,-0.01140
2118.72444,-0.01128
2119.68881,-0.01117
2120.65319,-0.01111
2121.61756,-0.01113
2122.58193,-0.01118
2123.54630,-0.01120
2124.51067,-0.01116
2125.47504,-0.01109
2126.43941,-0.01100
2127.40379,-0.01091
2128.36816,-0.01087
2129.33253,-0.01087
2130.29690,-0.01091
2131.26127,-0.01094
2132.22564,-0.01099
2133.19002,-0.01106
2134.15439,-0.01114
2135.11876,-0.01120
2136.08313,-0.01122
2137.04750,-0.01118
2138.01187,-0.01111
2138.97625,-0.01102
2139.94062,-0.01095
2140.90499,-0.01092
2141.86936,-0.01088
2142.83373,-0.01080
2143.79810,-0.01069
2144.76248,-0.01061
2145.72685,-0.01057
2146.69122,-0.01057
2147.65559,-0.01062
2148.61996,-0.01068
2149.58433,-0.01072
2150.54871,-0.01071
2151.51308,-0.01067
2152.47745,-0.01063
2153.44182,-0.01062
2154.40619,-0.01064
2155.37056,-0.01069
2156.33494,-0.01078
2157.29931,-0.01085
2158.26368,-0.01088
2159.22805,-0.01090
2160.19242,-0.01092
2161.15679,-0.01094
2162.12116,-0.01094
2163.08554,-0.01093
2164.04991,-0.01091
2165.01428,-0.01087
2165.97865,-0.01081
2166.94302,-0.01076
2167.90739,-0.01074
2168.87177,-0.01075
2169.83614,-0.01076
2170.80051,-0.01076
2171.76488,-0.01075
2172.72925,-0.01071
2173.69362,-0.01063
2174.65800,-0.01057
2175.62237,-0.01055
2176.58674,-0.01055
2177.55111,-0.01054
2178.51548,-0.01050
2179.47985,-0.01046
2180.44423,-0.01041
2181.40860,-0.01040
2182.37297,-0.01043
2183.33734,-0.01050
2184.30171,-0.01057
2185.26608,-0.01059
2186.23046,-0.01056
2187.19483,-0.01049
2188.15920,-0.01040
2189.12357,-0.01028
2190.08794,-0.01017
2191.05231,-0.01010
2192.01668,-0.01008
2192.98106,-0.01007
2193.94543,-0.01007
2194.90980,-0.01006
2195.87417,-0.01002
2196.83854,-0.00997
2197.80291,-0.00994
2198.76729,-0.00998
2199.73166,-0.01007
2200.69603,-0.01018
2201.66040,-0.01031
2202.62477,-0.01042
2203.58914,-0.01049
2204.55352,-0.01049
2205.51789,-0.01044
2206.48226,-0.01038
2207.44663,-0.01033
2208.41100,-0.01030
2209.37537,-0.01030
2210.33975,-0.01032
2211.30412,-0.01029
2212.26849,-0.01019
2213.23286,-0.01005
2214.19723,-0.00995
2215.16160,-0.00990
2216.12598,-0.00993
2217.09035,-0.00999
2218.05472,-0.01005
2219.01909,-0.01006
2219.98346,-0.00999
2220.94783,-0.00990
2221.91221,-0.00984
2222.87658,-0.00984
2223.84095,-0.00989
2224.80532,-0.00995
2225.76969,-0.01000
2226.73406,-0.01004
2227.69843,-0.01006
2228.66281,-0.01009
2229.62718,-0.01015
2230.59155,-0.01019
2231.55592,-0.01018
2232.52029,-0.01011
2233.48466,-0.01003
2234.44904,-0.00998
2235.41341,-0.00997
2236.37778,-0.01000
2237.34215,-0.01003
2238.30652,-0.01002
2239.27089,-0.00994
2240.23527,-0.00983
2241.19964,-0.00976
2242.16401,-0.00974
2243.12838,-0.00977
2244.09275,-0.00984
2245.05712,-0.00991
2246.02150,-0.00997
2246.98587,-0.00997
2247.95024,-0.00995
2248.91461,-0.00990
2249.87898,-0.00985
2250.84335,-0.00977
2251.80773,-0.00968
2252.77210,-0.00958
2253.73647,-0.00949
2254.70084,-0.00943
2255.66521,-0.00945
2256.62958,-0.00955
2257.59395,-0.00969
2258.55833,-0.00982
2259.52270,-0.00988
2260.48707,-0.00988
2261.45144,-0.00983
2262.41581,-0.00978
2263.38018,-0.00976
2264.34456,-0.00979
2265.30893,-0.00984
2266.27330,-0.00986
2267.23767,-0.00986
2268.20204,-0.00986
2269.16641,-0.00989
2270.13079,-0.00993
2271.09516,-0.00999
2272.05953,-0.01004
2273.02390,-0.01006
2273.98827,-0.01003
2274.95264,-0.00998
2275.91702,-0.00995
2276.88139,-0.00995
2277.84576,-0.00999
2278.81013,-0.01004
2279.77450,-0.01005
2280.73887,-0.00999
2281.70325,-0.00990
2282.66762,-0.00986
2283.63199,-0.00988
2284.59636,-0.00989
2285.56073,-0.00986
2286.52510,-0.00983
2287.48947,-0.00984
2288.45385,-0.00984
2289.41822,-0.00981
2290.38259,-0.00979
2291.34696,-0.00979
2292.31133,-0.00979
2293.27570,-0.00977
2294.24008,-0.00975
2295.20445,-0.00975
2296.16882,-0.00975
2297.13319,-0.00973
2298.09756,-0.00971
2299.06193,-0.00971
2300.02631,-0.00970
2300.99068,-0.00968
2301.95505,-0.00966
2302.91942,-0.00966
2303.88379,-0.00966
2304.84816,-0.00964
2305.81254,-0.00962
2306.77691,-0.00962
2307.74128,-0.00962
2308.70565,-0.00960
2309.67002,-0.00958
2310.63439,-0.00958
2311.59877,-0.00957
2312.56314,-0.00955
2313.52751,-0.00953
2314.49188,-0.00953
2315.45625,-0.00953
2316.42062,-0.00951
2317.38500,-0.00949
2318.34937,-0.00949
2319.31374,-0.00949
2320.27811,-0.00947
2321.24248,-0.00945
2322.20685,-0.00945
2323.17122,-0.00944
2324.13560,-0.00942
2325.09997,-0.00940
2326.06434,-0.00940
2327.02871,-0.00940
2327.99308,-0.00938
2328.95745,-0.00936
2329.92183,-0.00936
2330.88620,-0.00936
2331.85057,-0.00934
2332.81494,-0.00932
2333.77931,-0.00932
2334.74368,-0.00931
2335.70806,-0.00929
2336.67243,-0.00927
2337.63680,-0.00927
2338.60117,-0.00927
2339.56554,-0.00925
2340.52991,-0.00923
2341.49429,-0.00923
2342.45866,-0.00923
2343.42303,-0.00921
2344.38740,-0.00919
2345.35177,-0.00918
2346.31614,-0.00918
2347.28052,-0.00916
2348.24489,-0.00914
2349.20926,-0.00914
2350.17363,-0.00914
2351.13800,-0.00912
2352.10237,-0.00910
2353.06674,-0.00910
2354.03112,-0.00910
2354.99549,-0.00908
2355.95986,-0.00906
2356.92423,-0.00905
2357.88860,-0.00905
2358.85297,-0.00903
2359.81735,-0.00901
2360.78172,-0.00901
2361.74609,-0.00901
2362.71046,-0.00899
2363.67483,-0.00897
2364.63920,-0.00897
2365.60358,-0.00897
2366.56795,-0.00895
2367.53232,-0.00893
2368.49669,-0.00892
2369.46106,-0.00892
2370.42543,-0.00890
2371.38981,-0.00888
2372.35418,-0.00888
2373.31855,-0.00888
2374.28292,-0.00886
2375.24729,-0.00884
2376.21166,-0.00884
2377.17604,-0.00883
2378.14041,-0.00882
2379.10478,-0.00880
2380.06915,-0.00879
2381.03352,-0.00879
2381.99789,-0.00877
2382.96227,-0.00875
2383.92664,-0.00875
2384.89101,-0.00875
2385.85538,-0.00873
2386.81975,-0.00871
2387.78412,-0.00871
2388.74849,-0.00870
2389.71287,-0.00869
2390.67724,-0.00867
2391.64161,-0.00866
2392.60598,-0.00866
2393.57035,-0.00864
2394.53472,-0.00862
2395.49910,-0.00862
2396.46347,-0.00862
2397.42784,-0.00860
2398.39221,-0.00858
2399.35658,-0.00858
2400.32095,-0.00858
2401.28533,-0.00856
2402.24970,-0.00854
2403.21407,-0.00853
2404.17844,-0.00853
2405.14281,-0.00851
2406.10718,-0.00849
2407.07156,-0.00849
2408.03593,-0.00849
2409.00030,-0.00847
2409.96467,-0.00845
2410.92904,-0.00845
2411.89341,-0.00845
2412.85779,-0.00842
2413.82216,-0.00840
2414.78653,-0.00840
2415.75090,-0.00840
2416.71527,-0.00838
2417.67964,-0.00836
2418.64401,-0.00836
2419.60839,-0.00836
2420.57276,-0.00834
2421.53713,-0.00832
2422.50150,-0.00832
2423.46587,-0.00832
2424.43024,-0.00829
2425.39462,-0.00827
2426.35899,-0.00827
2427.32336,-0.00828
2428.28773,-0.00825
2429.25210,-0.00822
2430.21647,-0.00823
2431.18085,-0.00824
2432.14522,-0.00821
2433.10959,-0.00817
2434.07396,-0.00819
2435.03833,-0.00824
2436.00270,-0.00823
2436.96708,-0.00813
2437.93145,-0.00799
2438.89582,-0.00791
2439.86019,-0.00790
2440.82456,-0.00792
2441.78893,-0.00791
2442.75331,-0.00785
2443.71768,-0.00774
2444.68205,-0.00764
2445.64642,-0.00759
2446.61079,-0.00759
2447.57516,-0.00762
2448.53953,-0.00764
2449.50391,-0.00765
2450.46828,-0.00763
2451.43265,-0.00761
2452.39702,-0.00762
2453.36139,-0.00765
2454.32576,-0.00767
2455.29014,-0.00766
2456.25451,-0.00762
2457.21888,-0.00756
2458.18325,-0.00750
2459.14762,-0.00745
2460.11199,-0.00741
2461.07637,-0.00739
2462.04074,-0.00736
2463.00511,-0.00735
2463.96948,-0.00737
2464.93385,-0.00747
2465.89822,-0.00761
2466.86260,-0.00774
2467.82697,-0.00781
2468.79134,-0.00778
2469.75571,-0.00763
2470.72008,-0.00742
2471.68445,-0.00724
2472.64883,-0.00718
2473.61320,-0.00723
2474.57757,-0.00732
2475.54194,-0.00739
2476.50631,-0.00739
2477.47068,-0.00730
2478.43506,-0.00715
2479.39943,-0.00703
2480.36380,-0.00699
2481.32817,-0.00701
2482.29254,-0.00701
2483.25691,-0.00695
2484.22128,-0.00684
2485.18566,-0.00670
2486.15003,-0.00663
2487.11440,-0.00667
2488.07877,-0.00682
2489.04314,-0.00696
2490.00751,-0.00700
2490.97189,-0.00693
2491.93626,-0.00681
2492.90063,-0.00669
2493.86500,-0.00657
2494.82937,-0.00646
2495.79374,-0.00633
2496.75812,-0.00619
2497.72249,-0.00608
2498.68686,-0.00606
2499.65123,-0.00618
2500.61560,-0.00637
2501.57997,-0.00656
2502.54435,-0.00668
2503.50872,-0.00671
2504.47309,-0.00664
2505.43746,-0.00654
2506.40183,-0.00647
2507.36620,-0.00650
2508.33058,-0.00660
2509.29495,-0.00668
2510.25932,-0.00667
2511.22369,-0.00655
2512.18806,-0.00635
2513.15243,-0.00611
2514.11680,-0.00592
2515.08118,-0.00581
2516.04555,-0.00576
2517.00992,-0.00573
2517.97429,-0.00571
2518.93866,-0.00571
2519.90303,-0.00571
2520.86741,-0.00569
2521.83178,-0.00568
2522.79615,-0.00570
2523.76052,-0.00572
2524.72489,-0.00572
2525.68926,-0.00568
2526.65364,-0.00564
2527.61801,-0.00560
2528.58238,-0.00559
2529.54675,-0.00564
2530.51112,-0.00573
2531.47549,-0.00578
2532.43987,-0.00576
2533.40424,-0.00568
2534.36861,-0.00559
2535.33298,-0.00551
2536.29735,-0.00545
2537.26172,-0.00541
2538.22610,-0.00545
2539.19047,-0.00554
2540.15484,-0.00567
2541.11921,-0.00581
2542.08358,-0.00588
2543.04795,-0.00581
2544.01233,-0.00558
2544.97670,-0.00530
2545.94107,-0.00508
2546.90544,-0.00499
2547.86981,-0.00501
2548.83418,-0.00510
2549.79855,-0.00520
2550.76293,-0.00523
2551.72730,-0.00517
2552.69167,-0.00507
2553.65604,-0.00500
2554.62041,-0.00498
2555.58478,-0.00499
2556.54916,-0.00503
2557.51353,-0.00508
2558.47790,-0.00513
2559.44227,-0.00515
2560.40664,-0.00517
2561.37101,-0.00516
2562.33539,-0.00511
2563.29976,-0.00500
2564.26413,-0.00488
2565.22850,-0.00481
2566.19287,-0.00482
2567.15724,-0.00489
2568.12162,-0.00499
2569.08599,-0.00508
2570.05036,-0.00507
2571.01473,-0.00494
2571.97910,-0.00476
2572.94347,-0.00460
2573.90785,-0.00452
2574.87222,-0.00450
2575.83659,-0.00454
2576.80096,-0.00459
2577.76533,-0.00457
2578.72970,-0.00446
2579.69407,-0.00429
2580.65845,-0.00415
2581.62282,-0.00406
2582.58719,-0.00400
2583.55156,-0.00394
2584.51593,-0.00388
2585.48030,-0.00380
2586.44468,-0.00375
2587.40905,-0.00379
2588.37342,-0.00392
2589.33779,-0.00408
2590.30216,-0.00419
2591.26653,-0.00423
2592.23091,-0.00422
2593.19528,-0.00419
2594.15965,-0.00416
2595.12402,-0.00416
2596.08839,-0.00418
2597.05276,-0.00418
2598.01714,-0.00413
2598.98151,-0.00410
2599.94588,-0.00411
2600.91025,-0.00416
2601.87462,-0.00417
2602.83899,-0.00412
2603.80337,-0.00399
2604.76774,-0.00380
2605.73211,-0.00360
2606.69648,-0.00346
2607.66085,-0.00343
2608.62522,-0.00347
2609.58959,-0.00350
2610.55397,-0.00348
2611.51834,-0.00339
2612.48271,-0.00325
2613.44708,-0.00309
2614.41145,-0.00299
2615.37582,-0.00299
2616.34020,-0.00305
2617.30457,-0.00310
2618.26894,-0.00309
2619.23331,-0.00301
2620.19768,-0.00287
2621.16205,-0.00271
2622.12643,-0.00264
2623.09080,-0.00268
2624.05517,-0.00277
2625.01954,-0.00283
2625.98391,-0.00282
2626.94828,-0.00278
2627.91266,-0.00275
2628.87703,-0.00274
2629.84140,-0.00278
2630.80577,-0.00284
2631.77014,-0.00286
2632.73451,-0.00280
2633.69889,-0.00268
2634.66326,-0.00256
2635.62763,-0.00247
2636.59200,-0.00242
2637.55637,-0.00241
2638.52074,-0.00243
2639.48512,-0.00245
2640.44949,-0.00245
2641.41386,-0.00247
2642.37823,-0.00253
2643.34260,-0.00259
2644.30697,-0.00260
2645.27134,-0.00252
2646.23572,-0.00238
2647.20009,-0.00221
2648.16446,-0.00206
2649.12883,-0.00200
2650.09320,-0.00204
2651.05757,-0.00208
2652.02195,-0.00205
2652.98632,-0.00191
2653.95069,-0.00171
2654.91506,-0.00150
2655.87943,-0.00132
2656.84380,-0.00125
2657.80818,-0.00126
2658.77255,-0.00130
2659.73692,-0.00131
2660.70129,-0.00130
2661.66566,-0.00131
2662.63003,-0.00135
2663.59441,-0.00143
2664.55878,-0.00152
2665.52315,-0.00160
2666.48752,-0.00159
2667.45189,-0.00148
2668.41626,-0.00131
2669.38064,-0.00117
2670.34501,-0.00108
2671.30938,-0.00103
2672.27375,-0.00096
2673.23812,-0.00087
2674.20249,-0.00076
2675.16686,-0.00069
2676.13124,-0.00073
2677.09561,-0.00087
2678.05998,-0.00099
2679.02435,-0.00100
2679.98872,-0.00088
2680.95309,-0.00072
2681.91747,-0.00060
2682.88184,-0.00057
2683.84621,-0.00062
2684.81058,-0.00073
2685.77495,-0.00079
2686.73932,-0.00076
2687.70370,-0.00066
2688.66807,-0.00056
2689.63244,-0.00048
2690.59681,-0.00043
2691.56118,-0.00040
2692.52555,-0.00037
2693.48993,-0.00031
2694.45430,-0.00019
2695.41867,-0.00006
2696.38304,0.00002
2697.34741,0.00004
2698.31178,0.00004
2699.27616,-0.00001
2700.24053,-0.00009
2701.20490,-0.00018
2702.16927,-0.00024
2703.13364,-0.00029
2704.09801,-0.00033
2705.06239,-0.00033
2706.02676,-0.00024
2706.99113,-0.00010
2707.95550,0.00005
2708.91987,0.00017
2709.88424,0.00028
2710.84861,0.00037
2711.81299,0.00044
2712.77736,0.00055
2713.74173,0.00073
2714.70610,0.00094
2715.67047,0.00114
2716.63484,0.00127
2717.59922,0.00133
2718.56359,0.00130
2719.52796,0.00121
2720.49233,0.00116
2721.45670,0.00121
2722.42107,0.00135
2723.38545,0.00152
2724.34982,0.00166
2725.31419,0.00173
2726.27856,0.00171
2727.24293,0.00162
2728.20730,0.00153
2729.17168,0.00152
2730.13605,0.00157
2731.10042,0.00167
2732.06479,0.00182
2733.02916,0.00203
2733.99353,0.00230
2734.95791,0.00256
2735.92228,0.00278
2736.88665,0.00293
2737.85102,0.00298
2738.81539,0.00296
2739.77976,0.00296
2740.74413,0.00306
2741.70851,0.00325
2742.67288,0.00348
2743.63725,0.00368
2744.60162,0.00383
2745.56599,0.00386
2746.53036,0.00379
2747.49474,0.00368
2748.45911,0.00360
2749.42348,0.00357
2750.38785,0.00357
2751.35222,0.00360
2752.31659,0.00368
2753.28097,0.00379
2754.24534,0.00392
2755.20971,0.00407
2756.17408,0.00421
2757.13845,0.00423
2758.10282,0.00411
2759.06720,0.00391
2760.03157,0.00376
2760.99594,0.00376
2761.96031,0.00393
2762.92468,0.00424
2763.88905,0.00460
2764.85343,0.00487
2765.81780,0.00497
2766.78217,0.00491
2767.74654,0.00479
2768.71091,0.00470
2769.67528,0.00468
2770.63965,0.00475
2771.60403,0.00488
2772.56840,0.00502
2773.53277,0.00514
2774.49714,0.00528
2775.46151,0.00547
2776.42588,0.00567
2777.39026,0.00580
2778.35463,0.00583
2779.31900,0.00581
2780.28337,0.00574
2781.24774,0.00567
2782.21211,0.00562
2783.17649,0.00559
2784.14086,0.00552
2785.10523,0.00537
2786.06960,0.00520
2787.03397,0.00510
2787.99834,0.00512
2788.96272,0.00524
2789.92709,0.00547
2790.89146,0.00575
2791.85583,0.00600
2792.82020,0.00619
2793.78457,0.00636
2794.74895,0.00657
2795.71332,0.00681
2796.67769,0.00703
2797.64206,0.00718
2798.60643,0.00725
2799.57080,0.00722
2800.53518,0.00713
2801.49955,0.00705
2802.46392,0.00699
2803.42829,0.00693
2804.39266,0.00687
2805.35703,0.00685
2806.32140,0.00695
2807.28578,0.00714
2808.25015,0.00739
2809.21452,0.00767
2810.17889,0.00798
2811.14326,0.00826
2812.10763,0.00845
2813.07201,0.00855
2814.03638,0.00860
2815.00075,0.00860
2815.96512,0.00859
2816.92949,0.00861
2817.89386,0.00866
2818.85824,0.00870
2819.82261,0.00871
2820.78698,0.00872
2821.75135,0.00879
2822.71572,0.00893
2823.68009,0.00911
2824.64447,0.00930
2825.60884,0.00951
2826.57321,0.00972
2827.53758,0.00992
2828.50195,0.01014
2829.46632,0.01039
2830.43070,0.01057
2831.39507,0.01065
2832.35944,0.01069
2833.32381,0.01079
2834.28818,0.01101
2835.25255,0.01136
2836.21692,0.01179
2837.18130,0.01226
2838.14567,0.01270
2839.11004,0.01311
2840.07441,0.01350
2841.03878,0.01390
2842.00315,0.01429
2842.96753,0.01472
2843.93190,0.01528
2844.89627,0.01601
2845.86064,0.01689
2846.82501,0.01786
2847.78938,0.01892
2848.75376,0.02009
2849.71813,0.02133
2850.68250,0.02248
2851.64687,0.02340
2852.61124,0.02397
2853.57561,0.02415
2854.53999,0.02406
2855.50436,0.02388
2856.46873,0.02377
2857.43310,0.02372
2858.39747,0.02365
2859.36184,0.02349
2860.32622,0.02324
2861.29059,0.02290
2862.25496,0.02251
2863.21933,0.02218
2864.18370,0.02198
2865.14807,0.02193
2866.11245,0.02201
2867.07682,0.02226
2868.04119,0.02269
2869.00556,0.02329
2869.96993,0.02398
2870.93430,0.02468
2871.89867,0.02526
2872.86305,0.02562
2873.82742,0.02570
2874.79179,0.02560
2875.75616,0.02545
2876.72053,0.02534
2877.68490,0.02526
2878.64928,0.02520
2879.61365,0.02509
2880.57802,0.02489
2881.54239,0.02463
2882.50676,0.02439
2883.47113,0.02429
2884.43551,0.02429
2885.39988,0.02434
2886.36425,0.02438
2887.32862,0.02438
2888.29299,0.02432
2889.25736,0.02425
2890.22174,0.02421
2891.18611,0.02429
2892.15048,0.02448
2893.11485,0.02479
2894.07922,0.02528
2895.04359,0.02591
2896.00797,0.02660
2896.97234,0.02719
2897.93671,0.02762
2898.90108,0.02791
2899.86545,0.02811
2900.82982,0.02831
2901.79419,0.02859
2902.75857,0.02902
2903.72294,0.02955
2904.68731,0.03014
2905.65168,0.03079
2906.61605,0.03150
2907.58042,0.03219
2908.54480,0.03284
2909.50917,0.03352
2910.47354,0.03433
2911.43791,0.03535
2912.40228,0.03657
2913.36665,0.03796
2914.33103,0.03944
2915.29540,0.04094
2916.25977,0.04240
2917.22414,0.04384
2918.18851,0.04526
2919.15288,0.04658
2920.11726,0.04770
2921.08163,0.04864
2922.04600,0.04946
2923.01037,0.05018
2923.97474,0.05082
2924.93911,0.05140
2925.90349,0.05193
2926.86786,0.05237
2927.83223,0.05265
2928.79660,0.05277
2929.76097,0.05269
2930.72534,0.05238
2931.68971,0.05183
2932.65409,0.05116
2933.61846,0.05051
2934.58283,0.04994
2935.54720,0.04945
2936.51157,0.04899
2937.47594,0.04853
2938.44032,0.04799
2939.40469,0.04734
2940.36906,0.04661
2941.33343,0.04585
2942.29780,0.04508
2943.26217,0.04434
2944.22655,0.04370
2945.19092,0.04325
2946.15529,0.04298
2947.11966,0.04287
2948.08403,0.04292
2949.04840,0.04312
2950.01278,0.04343
2950.97715,0.04378
2951.94152,0.04416
2952.90589,0.04453
2953.87026,0.04484
2954.83463,0.04507
2955.79901,0.04532
2956.76338,0.04568
2957.72775,0.04615
2958.69212,0.04664
2959.65649,0.04705
2960.62086,0.04731
2961.58524,0.04738
2962.54961,0.04730
2963.51398,0.04716
2964.47835,0.04701
2965.44272,0.04679
2966.40709,0.04640
2967.37146,0.04578
2968.33584,0.04500
2969.30021,0.04416
2970.26458,0.04339
2971.22895,0.04283
2972.19332,0.04247
2973.15769,0.04218
2974.12207,0.04177
2975.08644,0.04119
2976.05081,0.04046
2977.01518,0.03965
2977.97955,0.03884
2978.94392,0.03810
2979.90830,0.03745
2980.87267,0.03682
2981.83704,0.03615
2982.80141,0.03545
2983.76578,0.03481
2984.73015,0.03423
2985.69453,0.03374
2986.65890,0.03332
2987.62327,0.03298
2988.58764,0.03266
2989.55201,0.03234
2990.51638,0.03206
2991.48076,0.03184
2992.44513,0.03162
2993.40950,0.03131
2994.37387,0.03094
2995.33824,0.03058
2996.30261,0.03028
2997.26698,0.03011
2998.23136,0.03005
2999.19573,0.03006
3000.16010,0.03001
3001.12447,0.02985
3002.08884,0.02967
3003.05321,0.02962
3004.01759,0.02973
3004.98196,0.02995
3005.94633,0.03016
3006.91070,0.03026
3007.87507,0.03018
3008.83944,0.02994
3009.80382,0.02970
3010.76819,0.02960
3011.73256,0.02966
3012.69693,0.02984
3013.66130,0.03005
3014.62567,0.03025
3015.59005,0.03037
3016.55442,0.03042
3017.51879,0.03044
3018.48316,0.03049
3019.44753,0.03057
3020.41190,0.03066
3021.37628,0.03079
3022.34065,0.03099
3023.30502,0.03123
3024.26939,0.03152
3025.23376,0.03187
3026.19813,0.03231
3027.16251,0.03279
3028.12688,0.03320
3029.09125,0.03350
3030.05562,0.03369
3031.01999,0.03377
3031.98436,0.03381
3032.94873,0.03390
3033.91311,0.03411
3034.87748,0.03440
3035.84185,0.03470
3036.80622,0.03498
3037.77059,0.03524
3038.73496,0.03545
3039.69934,0.03560
3040.66371,0.03577
3041.62808,0.03600
3042.59245,0.03628
3043.55682,0.03657
3044.52119,0.03686
3045.48557,0.03719
3046.44994,0.03754
3047.41431,0.03790
3048.37868,0.03823
3049.34305,0.03850
3050.30742,0.03871
3051.27180,0.03890
3052.23617,0.03921
3053.20054,0.03968
3054.16491,0.04018
3055.12928,0.04054
3056.09365,0.04067
3057.05803,0.04066
3058.02240,0.04063
3058.98677,0.04069
3059.95114,0.04090
3060.91551,0.04121
3061.87988,0.04155
3062.84425,0.04184
3063.80863,0.04212
3064.77300,0.04243
3065.73737,0.04273
3066.70174,0.04299
3067.66611,0.04319
3068.63048,0.04333
3069.59486,0.04337
3070.55923,0.04326
3071.52360,0.04303
3072.48797,0.04277
3073.45234,0.04256
3074.41671,0.04251
3075.38109,0.04270
3076.34546,0.04315
3077.30983,0.04371
3078.27420,0.04417
3079.23857,0.04441
3080.20294,0.04442
3081.16732,0.04429
3082.13169,0.04413
3083.09606,0.04409
3084.06043,0.04418
3085.02480,0.04432
3085.98917,0.04439
3086.95355,0.04439
3087.91792,0.04439
3088.88229,0.04441
3089.84666,0.04448
3090.81103,0.04461
3091.77540,0.04473
3092.73977,0.04476
3093.70415,0.04460
3094.66852,0.04433
3095.63289,0.04405
3096.59726,0.04383
3097.56163,0.04369
3098.52600,0.04363
3099.49038,0.04359
3100.45475,0.04349
3101.41912,0.04327
3102.38349,0.04301
3103.34786,0.04282
3104.31223,0.04279
3105.27661,0.04296
3106.24098,0.04336
3107.20535,0.04393
3108.16972,0.04457
3109.13409,0.04516
3110.09846,0.04566
3111.06284,0.04607
3112.02721,0.04633
3112.99158,0.04644
3113.95595,0.04644
3114.92032,0.04640
3115.88469,0.04634
3116.84907,0.04632
3117.81344,0.04642
3118.77781,0.04668
3119.74218,0.04702
3120.70655,0.04731
3121.67092,0.04748
3122.63530,0.04755
3123.59967,0.04755
3124.56404,0.04758
3125.52841,0.04778
3126.49278,0.04817
3127.45715,0.04867
3128.42152,0.04912
3129.38590,0.04945
3130.35027,0.04966
3131.31464,0.04977
3132.27901,0.04985
3133.24338,0.05003
3134.20775,0.05034
3135.17213,0.05072
3136.13650,0.05103
3137.10087,0.05125
3138.06524,0.05140
3139.02961,0.05149
3139.99398,0.05157
3140.95836,0.05170
3141.92273,0.05192
3142.88710,0.05219
3143.85147,0.05247
3144.81584,0.05282
3145.78021,0.05332
3146.74459,0.05396
3147.70896,0.05464
3148.67333,0.05529
3149.63770,0.05583
3150.60207,0.05617
3151.56644,0.05630
3152.53082,0.05632
3153.49519,0.05638
3154.45956,0.05651
3155.42393,0.05671
3156.38830,0.05697
3157.35267,0.05728
3158.31704,0.05758
3159.28142,0.05787
3160.24579,0.05822
3161.21016,0.05868
3162.17453,0.05922
3163.13890,0.05981
3164.10327,0.06045
3165.06765,0.06114
3166.03202,0.06179
3166.99639,0.06233
3167.96076,0.06273
3168.92513,0.06299
3169.88950,0.06313
3170.85388,0.06319
3171.81825,0.06333
3172.78262,0.06366
3173.74699,0.06421
3174.71136,0.06489
3175.67573,0.06561
3176.64011,0.06625
3177.60448,0.06671
3178.56885,0.06697
3179.53322,0.06712
3180.49759,0.06730
3181.46196,0.06759
3182.42634,0.06800
3183.39071,0.06857
3184.35508,0.06925
3185.31945,0.06992
3186.28382,0.07048
3187.24819,0.07094
3188.21257,0.07135
3189.17694,0.07173
3190.14131,0.07205
3191.10568,0.07231
3192.07005,0.07253
3193.03442,0.07275
3193.99879,0.07302
3194.96317,0.07344
3195.92754,0.07400
3196.89191,0.07457
3197.85628,0.07499
3198.82065,0.07521
3199.78502,0.07528
3200.74940,0.07528
3201.71377,0.07536
3202.67814,0.07564
3203.64251,0.07618
3204.60688,0.07686
3205.57125,0.07753
3206.53563,0.07810
3207.50000,0.07857
3208.46437,0.07892
3209.42874,0.07915
3210.39311,0.07935
3211.35748,0.07965
3212.32186,0.08009
3213.28623,0.08064
3214.25060,0.08126
3215.21497,0.08184
3216.17934,0.08222
3217.14371,0.08234
3218.10809,0.08232
3219.07246,0.08233
3220.03683,0.08247
3221.00120,0.08277
3221.96557,0.08318
3222.92994,0.08362
3223.89431,0.08395
3224.85869,0.08412
3225.82306,0.08421
3226.78743,0.08437
3227.75180,0.08464
3228.71617,0.08502
3229.68054,0.08549
3230.64492,0.08599
3231.60929,0.08646
3232.57366,0.08690
3233.53803,0.08741
3234.50240,0.08809
3235.46677,0.08885
3236.43115,0.08954
3237.39552,0.09004
3238.35989,0.09033
3239.32426,0.09046
3240.28863,0.09057
3241.25300,0.09086
3242.21738,0.09143
3243.18175,0.09221
3244.14612,0.09305
3245.11049,0.09384
3246.07486,0.09455
3247.03923,0.09516
3248.00361,0.09568
3248.96798,0.09625
3249.93235,0.09698
3250.89672,0.09791
3251.86109,0.09898
3252.82546,0.10015
3253.78983,0.10130
3254.75421,0.10233
3255.71858,0.10317
3256.68295,0.10389
3257.64732,0.10458
3258.61169,0.10525
3259.57606,0.10593
3260.54044,0.10670
3261.50481,0.10764
3262.46918,0.10869
3263.43355,0.10976
3264.39792,0.11077
3265.36229,0.11170
3266.32667,0.11254
3267.29104,0.11332
3268.25541,0.11417
3269.21978,0.11517
3270.18415,0.11633
3271.14852,0.11761
3272.11290,0.11893
3273.07727,0.12021
3274.04164,0.12130
3275.00601,0.12212
3275.97038,0.12277
3276.93475,0.12337
3277.89913,0.12394
3278.86350,0.12445
3279.82787,0.12488
3280.79224,0.12527
3281.75661,0.12564
3282.72098,0.12599
3283.68536,0.12635
3284.64973,0.12667
3285.61410,0.12689
3286.57847,0.12702
3287.54284,0.12721
3288.50721,0.12762
3289.47158,0.12824
3290.43596,0.12894
3291.40033,0.12960
3292.36470,0.13013
3293.32907,0.13043
3294.29344,0.13049
3295.25781,0.13035
3296.22219,0.13010
3297.18656,0.12973
3298.15093,0.12928
3299.11530,0.12888
3300.07967,0.12867
3301.04404,0.12867
3302.00842,0.12881
3302.97279,0.12904
3303.93716,0.12929
3304.90153,0.12947
3305.86590,0.12953
3306.83027,0.12954
3307.79465,0.12953
3308.75902,0.12947
3309.72339,0.12929
3310.68776,0.12900
3311.65213,0.12857
3312.61650,0.12793
3313.58088,0.12709
3314.54525,0.12621
3315.50962,0.12550
3316.47399,0.12502
3317.43836,0.12467
3318.40273,0.12435
3319.36710,0.12396
3320.33148,0.12348
3321.29585,0.12294
3322.26022,0.12243
3323.22459,0.12198
3324.18896,0.12151
3325.15333,0.12095
3326.11771,0.12036
3327.08208,0.11980
3328.04645,0.11929
3329.01082,0.11878
3329.97519,0.11828
3330.93956,0.11785
3331.90394,0.11747
3332.86831,0.11716
3333.83268,0.11697
3334.79705,0.11690
3335.76142,0.11688
3336.72579,0.11681
3337.69017,0.11669
3338.65454,0.11653
3339.61891,0.11630
3340.58328,0.11598
3341.54765,0.11565
3342.51202,0.11539
3343.47640,0.11514
3344.44077,0.11481
3345.40514,0.11435
3346.36951,0.11377
3347.33388,0.11309
3348.29825,0.11236
3349.26263,0.11165
3350.22700,0.11099
3351.19137,0.11030
3352.15574,0.10954
3353.12011,0.10879
3354.08448,0.10818
3355.04885,0.10773
3356.01323,0.10749
3356.97760,0.10750
3357.94197,0.10777
3358.90634,0.10815
3359.87071,0.10845
3360.83508,0.10855
3361.79946,0.10846
3362.76383,0.10823
3363.72820,0.10792
3364.69257,0.10758
3365.65694,0.10719
3366.62131,0.10662
3367.58569,0.10585
3368.55006,0.10503
3369.51443,0.10436
3370.47880,0.10392
3371.44317,0.10363
3372.40754,0.10340
3373.37192,0.10316
3374.33629,0.10283
3375.30066,0.10241
3376.26503,0.10201
3377.22940,0.10166
3378.19377,0.10125
3379.15815,0.10067
3380.12252,0.09998
3381.08689,0.09936
3382.05126,0.09902
3383.01563,0.09907
3383.98000,0.09948
3384.94437,0.10003
3385.90875,0.10038
3386.87312,0.10029
3387.83749,0.09987
3388.80186,0.09934
3389.76623,0.09884
3390.73060,0.09838
3391.69498,0.09789
3392.65935,0.09735
3393.62372,0.09672
3394.58809,0.09609
3395.55246,0.09568
3396.51683,0.09562
3397.48121,0.09583
3398.44558,0.09611
3399.40995,0.09631
3400.37432,0.09632
3401.33869,0.09607
3402.30306,0.09561
3403.26744,0.09506
3404.23181,0.09450
3405.19618,0.09394
3406.16055,0.09337
3407.12492,0.09286
3408.08929,0.09249
3409.05367,0.09220
3410.01804,0.09192
3410.98241,0.09167
3411.94678,0.09147
3412.91115,0.09133
3413.87552,0.09122
3414.83989,0.09118
3415.80427,0.09125
3416.76864,0.09140
3417.73301,0.09159
3418.69738,0.09177
3419.66175,0.09184
3420.62612,0.09158
3421.59050,0.09087
3422.55487,0.08983
3423.51924,0.08869
3424.48361,0.08762
3425.44798,0.08676
3426.41235,0.08620
3427.37673,0.08600
3428.34110,0.08607
3429.30547,0.08626
3430.26984,0.08648
3431.23421,0.08663
3432.19858,0.08660
3433.16296,0.08636
3434.12733,0.08604
3435.09170,0.08577
3436.05607,0.08561
3437.02044,0.08556
3437.98481,0.08561
3438.94919,0.08566
3439.91356,0.08552
3440.87793,0.08505
3441.84230,0.08437
3442.80667,0.08369
3443.77104,0.08316
3444.73542,0.08278
3445.69979,0.08251
3446.66416,0.08221
3447.62853,0.08173
3448.59290,0.08106
3449.55727,0.08035
3450.52164,0.07976
3451.48602,0.07932
3452.45039,0.07897
3453.41476,0.07870
3454.37913,0.07851
3455.34350,0.07833
3456.30787,0.07815
3457.27225,0.07801
3458.23662,0.07791
3459.20099,0.07771
3460.16536,0.07723
3461.12973,0.07645
3462.09410,0.07551
3463.05848,0.07462
3464.02285,0.07402
3464.98722,0.07386
3465.95159,0.07409
3466.91596,0.07439
3467.88033,0.07451
3468.84471,0.07436
3469.80908,0.07402
3470.77345,0.07351
3471.73782,0.07292
3472.70219,0.07245
3473.66656,0.07231
3474.63094,0.07254
3475.59531,0.07301
3476.55968,0.07356
3477.52405,0.07402
3478.48842,0.07422
3479.45279,0.07409
3480.41716,0.07364
3481.38154,0.07287
3482.34591,0.07176
3483.31028,0.07040
3484.27465,0.06909
3485.23902,0.06812
3486.20339,0.06756
3487.16777,0.06726
3488.13214,0.06705
3489.09651,0.06681
3490.06088,0.06652
3491.02525,0.06626
3491.98962,0.06620
3492.95400,0.06641
3493.91837,0.06671
3494.88274,0.06695
3495.84711,0.06705
3496.81148,0.06703
3497.77585,0.06680
3498.74023,0.06629
3499.70460,0.06555
3500.66897,0.06473
3501.63334,0.06395
3502.59771,0.06333
3503.56208,0.06294
3504.52646,0.06279
3505.49083,0.06268
3506.45520,0.06242
3507.41957,0.06193
3508.38394,0.06123
3509.34831,0.06035
3510.31269,0.05944
3511.27706,0.05870
3512.24143,0.05823
3513.20580,0.05791
3514.17017,0.05760
3515.13454,0.05729
3516.09891,0.05700
3517.06329,0.05669
3518.02766,0.05634
3518.99203,0.05602
3519.95640,0.05582
3520.92077,0.05572
3521.88514,0.05565
3522.84952,0.05558
3523.81389,0.05549
3524.77826,0.05531
3525.74263,0.05500
3526.70700,0.05462
3527.67137,0.05419
3528.63575,0.05363
3529.60012,0.05288
3530.56449,0.05204
3531.52886,0.05128
3532.49323,0.05063
3533.45760,0.05012
3534.42198,0.04979
3535.38635,0.04965
3536.35072,0.04964
3537.31509,0.04971
3538.27946,0.04988
3539.24383,0.05016
3540.20821,0.05042
3541.17258,0.05055
3542.13695,0.05054
3543.10132,0.05042
3544.06569,0.05013
3545.03006,0.04957
3545.99443,0.04876
3546.95881,0.04778
3547.92318,0.04667
3548.88755,0.04554
3549.85192,0.04456
3550.81629,0.04387
3551.78066,0.04343
3552.74504,0.04315
3553.70941,0.04300
3554.67378,0.04299
3555.63815,0.04303
3556.60252,0.04310
3557.56689,0.04318
3558.53127,0.04325
3559.49564,0.04314
3560.46001,0.04280
3561.42438,0.04239
3562.38875,0.04212
3563.35312,0.04198
3564.31750,0.04181
3565.28187,0.04140
3566.24624,0.04061
3567.21061,0.03941
3568.17498,0.03803
3569.13935,0.03686
3570.10373,0.03620
3571.06810,0.03598
3572.03247,0.03602
3572.99684,0.03619
3573.96121,0.03639
3574.92558,0.03645
3575.88995,0.03629
3576.85433,0.03604
3577.81870,0.03584
3578.78307,0.03571
3579.74744,0.03558
3580.71181,0.03540
3581.67618,0.03518
3582.64056,0.03486
3583.60493,0.03444
3584.56930,0.03399
3585.53367,0.03350
3586.49804,0.03282
3587.46241,0.03190
3588.42679,0.03095
3589.39116,0.03032
3590.35553,0.03009
3591.31990,0.03013
3592.28427,0.03025
3593.24864,0.03029
3594.21302,0.03013
3595.17739,0.02979
3596.14176,0.02947
3597.10613,0.02937
3598.07050,0.02951
3599.03487,0.02977
3599.99925,0.03001
3600.96362,0.03005
3601.92799,0.02969
3602.89236,0.02891
3603.85673,0.02792
3604.82110,0.02694
3605.78548,0.02604
3606.74985,0.02526
3607.71422,0.02470
3608.67859,0.02447
3609.64296,0.02449
3610.60733,0.02451
3611.57170,0.02434
3612.53608,0.02393
3613.50045,0.02335
3614.46482,0.02279
3615.42919,0.02244
3616.39356,0.02222
3617.35793,0.02180
3618.32231,0.02096
3619.28668,0.01985
3620.25105,0.01882
3621.21542,0.01812
3622.17979,0.01780
3623.14416,0.01782
3624.10854,0.01811
3625.07291,0.01858
3626.03728,0.01902
3627.00165,0.01907
3627.96602,0.01836
3628.93039,0.01686
3629.89477,0.01516
3630.85914,0.01413
3631.82351,0.01413
3632.78788,0.01478
3633.75225,0.01544
3634.71662,0.01576
3635.68100,0.01569
3636.64537,0.01529
3637.60974,0.01469
3638.57411,0.01414
3639.53848,0.01384
3640.50285,0.01372
3641.46722,0.01369
3642.43160,0.01382
3643.39597,0.01417
3644.36034,0.01463
3645.32471,0.01501
3646.28908,0.01511
3647.25345,0.01475
3648.21783,0.01373
3649.18220,0.01225
3650.14657,0.01099
3651.11094,0.01064
3652.07531,0.01130
3653.03968,0.01250
3654.00406,0.01358
3654.96843,0.01408
3655.93280,0.01376
3656.89717,0.01279
3657.86154,0.01169
3658.82591,0.01095
3659.79029,0.01068
3660.75466,0.01065
3661.71903,0.01060
3662.68340,0.01039
3663.64777,0.00992
3664.61214,0.00928
3665.57652,0.00873
3666.54089,0.00851
3667.50526,0.00858
3668.46963,0.00874
3669.43400,0.00898
3670.39837,0.00943
3671.36275,0.01024
3672.32712,0.01130
3673.29149,0.01228
3674.25586,0.01262
3675.22023,0.01192
3676.18460,0.01035
3677.14897,0.00870
3678.11335,0.00771
3679.07772,0.00752
3680.04209,0.00770
3681.00646,0.00786
3681.97083,0.00787
3682.93520,0.00783
3683.89958,0.00794
3684.86395,0.00841
3685.82832,0.00927
3686.79269,0.01017
3687.75706,0.01051
3688.72143,0.00985
3689.68581,0.00820
3690.65018,0.00608
3691.61455,0.00432
3692.57892,0.00355
3693.54329,0.00382
3694.50766,0.00463
3695.47204,0.00550
3696.43641,0.00623
3697.40078,0.00679
3698.36515,0.00708
3699.32952,0.00704
3700.29389,0.00670
3701.25827,0.00609
3702.22264,0.00530
3703.18701,0.00453
3704.15138,0.00419
3705.11575,0.00447
3706.08012,0.00519
3707.04449,0.00606
3708.00887,0.00694
3708.97324,0.00765
3709.93761,0.00779
3710.90198,0.00704
3711.86635,0.00563
3712.83072,0.00424
3713.79510,0.00348
3714.75947,0.00358
3715.72384,0.00443
3716.68821,0.00567
3717.65258,0.00694
3718.61695,0.00793
3719.58133,0.00855
3720.54570,0.00877
3721.51007,0.00858
3722.47444,0.00801
3723.43881,0.00717
3724.40318,0.00611
3725.36756,0.00497
3726.33193,0.00411
3727.29630,0.00403
3728.26067,0.00490
3729.22504,0.00628
3730.18941,0.00747
3731.15379,0.00802
3732.11816,0.00789
3733.08253,0.00732
3734.04690,0.00665
3735.01127,0.00613
3735.97564,0.00579
3736.94001,0.00558
3737.90439,0.00562
3738.86876,0.00621
3739.83313,0.00743
3740.79750,0.00900
3741.76187,0.01048
3742.72624,0.01151
3743.69062,0.01179
3744.65499,0.01129
3745.61936,0.01043
3746.58373,0.00991
3747.54810,0.01001
3748.51247,0.01036
3749.47685,0.01037
3750.44122,0.00979
3751.40559,0.00870
3752.36996,0.00742
3753.33433,0.00643
3754.29870,0.00621
3755.26308,0.00674
3756.22745,0.00747
3757.19182,0.00781
3758.15619,0.00764
3759.12056,0.00719
3760.08493,0.00674
3761.04931,0.00655
3762.01368,0.00677
3762.97805,0.00727
3763.94242,0.00765
3764.90679,0.00775
3765.87116,0.00783
3766.83554,0.00807
3767.79991,0.00820
3768.76428,0.00789
3769.72865,0.00720
3770.69302,0.00649
3771.65739,0.00604
3772.62176,0.00597
3773.58614,0.00643
3774.55051,0.00739
3775.51488,0.00861
3776.47925,0.00984
3777.44362,0.01097
3778.40799,0.01181
3779.37237,0.01200
3780.33674,0.01145
3781.30111,0.01056
3782.26548,0.00989
3783.22985,0.00966
3784.19422,0.00984
3785.15860,0.01034
3786.12297,0.01095
3787.08734,0.01127
3788.05171,0.01106
3789.01608,0.01045
3789.98045,0.00971
3790.94483,0.00896
3791.90920,0.00833
3792.87357,0.00803
3793.83794,0.00817
3794.80231,0.00852
3795.76668,0.00885
3796.73106,0.00928
3797.69543,0.01002
3798.65980,0.01096
3799.62417,0.01181
3800.58854,0.01242
3801.55291,0.01273
3802.51728,0.01273
3803.48166,0.01260
3804.44603,0.01262
3805.41040,0.01282
3806.37477,0.01289
3807.33914,0.01272
3808.30351,0.01264
3809.26789,0.01298
3810.23226,0.01357
3811.19663,0.01409
3812.16100,0.01442
3813.12537,0.01451
3814.08974,0.01405
3815.05412,0.01284
3816.01849,0.01131
3816.98286,0.01024
3817.94723,0.01010
3818.91160,0.01080
3819.87597,0.01186
3820.84035,0.01273
3821.80472,0.01301
3822.76909,0.01281
3823.73346,0.01267
3824.69783,0.01292
3825.66220,0.01335
3826.62658,0.01358
3827.59095,0.01358
3828.55532,0.01352
3829.51969,0.01340
3830.48406,0.01322
3831.44843,0.01317
3832.41281,0.01338
3833.37718,0.01372
3834.34155,0.01405
3835.30592,0.01458
3836.27029,0.01543
3837.23466,0.01623
3838.19903,0.01653
3839.16341,0.01623
3840.12778,0.01561
3841.09215,0.01488
3842.05652,0.01422
3843.02089,0.01392
3843.98526,0.01415
3844.94964,0.01467
3845.91401,0.01521
3846.87838,0.01578
3847.84275,0.01646
3848.80712,0.01709
3849.77149,0.01758
3850.73587,0.01804
3851.70024,0.01836
3852.66461,0.01794
3853.62898,0.01643
3854.59335,0.01450
3855.55772,0.01329
3856.52210,0.01330
3857.48647,0.01408
3858.45084,0.01495
3859.41521,0.01555
3860.37958,0.01582
3861.34395,0.01583
3862.30833,0.01564
3863.27270,0.01529
3864.23707,0.01483
3865.20144,0.01452
3866.16581,0.01491
3867.13018,0.01630
3868.09455,0.01837
3869.05893,0.02040
3870.02330,0.02177
3870.98767,0.02216
3871.95204,0.02145
3872.91641,0.01989
3873.88078,0.01808
3874.84516,0.01652
3875.80953,0.01535
3876.77390,0.01462
3877.73827,0.01445
3878.70264,0.01467
3879.66701,0.01476
3880.63139,0.01442
3881.59576,0.01404
3882.56013,0.01412
3883.52450,0.01468
3884.48887,0.01533
3885.45324,0.01580
3886.41762,0.01603
3887.38199,0.01601
3888.34636,0.01591
3889.31073,0.01612
3890.27510,0.01677
3891.23947,0.01747
3892.20385,0.01786
3893.16822,0.01812
3894.13259,0.01858
3895.09696,0.01920
3896.06133,0.01977
3897.02570,0.02028
3897.99007,0.02064
3898.95445,0.02049
3899.91882,0.01961
3900.88319,0.01836
3901.84756,0.01730
3902.81193,0.01671
3903.77630,0.01670
3904.74068,0.01741
3905.70505,0.01872
3906.66942,0.02006
3907.63379,0.02099
3908.59816,0.02162
3909.56253,0.02217
3910.52691,0.02247
3911.49128,0.02233
3912.45565,0.02203
3913.42002,0.02191
3914.38439,0.02189
3915.34876,0.02177
3916.31314,0.02165
3917.27751,0.02158
3918.24188,0.02125
3919.20625,0.02051
3920.17062,0.01980
3921.13499,0.01956
3922.09937,0.01969
3923.06374,0.01993
3924.02811,0.02040
3924.99248,0.02117
3925.95685,0.02185
3926.92122,0.02206
3927.88560,0.02198
3928.84997,0.02195
3929.81434,0.02186
3930.77871,0.02166
3931.74308,0.02171
3932.70745,0.02219
3933.67182,0.02263
3934.63620,0.02253
3935.60057,0.02209
3936.56494,0.02171
3937.52931,0.02129
3938.49368,0.02068
3939.45805,0.02022
3940.42243,0.02022
3941.38680,0.02045
3942.35117,0.02070
3943.31554,0.02131
3944.27991,0.02251
3945.24428,0.02371
3946.20866,0.02426
3947.17303,0.02427
3948.13740,0.02419
3949.10177,0.02401
3950.06614,0.02375
3951.03051,0.02394
3951.99489,0.02485
3952.95926,0.02579
3953.92363,0.02604
3954.88800,0.02579
3955.85237,0.02552
3956.81674,0.02508
3957.78112,0.02433
3958.74549,0.02388
3959.70986,0.02417
3960.67423,0.02463
3961.63860,0.02462
3962.60297,0.02451
3963.56734,0.02485
3964.53172,0.02524
3965.49609,0.02516
3966.46046,0.02503
3967.42483,0.02535
3968.38920,0.02561
3969.35357,0.02523
3970.31795,0.02484
3971.28232,0.02515
3972.24669,0.02560
3973.21106,0.02545
3974.17543,0.02523
3975.13980,0.02555
3976.10418,0.02574
3977.06855,0.02522
3978.03292,0.02501
3978.99729,0.02615
3979.96166,0.02762
3980.92603,0.02798
3981.89041,0.02774
3982.85478,0.02798
3983.81915,0.02799
3984.78352,0.02689
3985.74789,0.02609
3986.71226,0.02710
3987.67664,0.02845
3988.64101,0.02815
3989.60538,0.02757
3990.56975,0.02899
3991.53412,0.03060
3992.49849,0.02921
3993.46287,0.02686
3994.42724,0.02823
3995.39161,0.03111
3996.35598,0.02688
