399.24985,-0.00739
400.21422,-0.00901
401.17859,-0.01204
402.14296,-0.01354
403.10734,-0.01312
404.07171,-0.01251
405.03608,-0.01248
406.00045,-0.01221
406.96482,-0.01134
407.92919,-0.01067
408.89357,-0.01063
409.85794,-0.01065
410.82231,-0.01028
411.78668,-0.00990
412.75105,-0.00984
413.71542,-0.00975
414.67980,-0.00921
415.64417,-0.00804
416.60854,-0.00609
417.57291,-0.00345
418.53728,-0.00115
419.50165,-0.00079
420.46602,-0.00286
421.43040,-0.00606
422.39477,-0.00855
423.35914,-0.00948
424.32351,-0.00905
425.28788,-0.00780
426.25225,-0.00638
427.21663,-0.00535
428.18100,-0.00488
429.14537,-0.00464
430.10974,-0.00438
431.07411,-0.00421
432.03848,-0.00417
433.00286,-0.00399
433.96723,-0.00346
434.93160,-0.00278
435.89597,-0.00223
436.86034,-0.00182
437.82471,-0.00145
438.78909,-0.00115
439.75346,-0.00085
440.71783,-0.00030
441.68220,0.00062
442.64657,0.00166
443.61094,0.00252
444.57532,0.00316
445.53969,0.00362
446.50406,0.00379
447.46843,0.00366
448.43280,0.00355
449.39717,0.00375
450.36155,0.00429
451.32592,0.00497
452.29029,0.00571
453.25466,0.00658
454.21903,0.00780
455.18340,0.00963
456.14777,0.01205
457.11215,0.01442
458.07652,0.01570
459.04089,0.01534
460.00526,0.01378
460.96963,0.01197
461.93400,0.01061
462.89838,0.00991
463.86275,0.00973
464.82712,0.00981
465.79149,0.00991
466.75586,0.01002
467.72023,0.01043
468.68461,0.01136
469.64898,0.01272
470.61335,0.01414
471.57772,0.01524
472.54209,0.01575
473.50646,0.01565
474.47084,0.01521
475.43521,0.01490
476.39958,0.01502
477.36395,0.01549
478.32832,0.01608
479.29269,0.01665
480.25707,0.01715
481.22144,0.01749
482.18581,0.01767
483.15018,0.01793
484.11455,0.01844
485.07892,0.01921
486.04329,0.02010
487.00767,0.02103
487.97204,0.02196
488.93641,0.02281
489.90078,0.02354
490.86515,0.02419
491.82952,0.02477
492.79390,0.02525
493.75827,0.02563
494.72264,0.02602
495.68701,0.02649
496.65138,0.02701
497.61575,0.02764
498.58013,0.02859
499.54450,0.02997
500.50887,0.03157
501.47324,0.03290
502.43761,0.03351
503.40198,0.03322
504.36636,0.03220
505.33073,0.03098
506.29510,0.03020
507.25947,0.03026
508.22384,0.03106
509.18821,0.03222
510.15259,0.03340
511.11696,0.03444
512.08133,0.03534
513.04570,0.03624
514.01007,0.03738
514.97444,0.03885
515.93881,0.04055
516.90319,0.04226
517.86756,0.04385
518.83193,0.04523
519.79630,0.04627
520.76067,0.04690
521.72504,0.04714
522.68942,0.04705
523.65379,0.04675
524.61816,0.04647
525.58253,0.04654
526.54690,0.04715
527.51127,0.04823
528.47565,0.04947
529.44002,0.05061
530.40439,0.05153
531.36876,0.05223
532.33313,0.05283
533.29750,0.05349
534.26188,0.05426
535.22625,0.05504
536.19062,0.05571
537.15499,0.05624
538.11936,0.05666
539.08373,0.05699
540.04811,0.05728
541.01248,0.05758
541.97685,0.05791
542.94122,0.05822
543.90559,0.05844
544.86996,0.05862
545.83434,0.05883
546.79871,0.05909
547.76308,0.05937
548.72745,0.05963
549.69182,0.05977
550.65619,0.05969
551.62056,0.05937
552.58494,0.05894
553.54931,0.05858
554.51368,0.05839
555.47805,0.05837
556.44242,0.05849
557.40679,0.05866
558.37117,0.05875
559.33554,0.05872
560.29991,0.05862
561.26428,0.05853
562.22865,0.05847
563.19302,0.05846
564.15740,0.05850
565.12177,0.05860
566.08614,0.05872
567.05051,0.05882
568.01488,0.05892
568.97925,0.05903
569.94363,0.05911
570.90800,0.05912
571.87237,0.05905
572.83674,0.05890
573.80111,0.05868
574.76548,0.05845
575.72986,0.05836
576.69423,0.05857
577.65860,0.05907
578.62297,0.05970
579.58734,0.06024
580.55171,0.06050
581.51608,0.06041
582.48046,0.06002
583.44483,0.05953
584.40920,0.05911
585.37357,0.05883
586.33794,0.05868
587.30231,0.05867
588.26669,0.05876
589.23106,0.05890
590.19543,0.05904
591.15980,0.05911
592.12417,0.05908
593.08854,0.05896
594.05292,0.05880
595.01729,0.05871
595.98166,0.05876
596.94603,0.05891
597.91040,0.05905
598.87477,0.05914
599.83915,0.05912
600.80352,0.05898
601.76789,0.05872
602.73226,0.05840
603.69663,0.05811
604.66100,0.05789
605.62538,0.05778
606.58975,0.05778
607.55412,0.05790
608.51849,0.05809
609.48286,0.05829
610.44723,0.05848
611.41161,0.05866
612.37598,0.05887
613.34035,0.05913
614.30472,0.05947
615.26909,0.05986
616.23346,0.06026
617.19783,0.06069
618.16221,0.06124
619.12658,0.06191
620.09095,0.06264
621.05532,0.06329
622.01969,0.06381
622.98406,0.06422
623.94844,0.06455
624.91281,0.06489
625.87718,0.06526
626.84155,0.06570
627.80592,0.06619
628.77029,0.06669
629.73467,0.06717
630.69904,0.06763
631.66341,0.06800
632.62778,0.06826
633.59215,0.06841
634.55652,0.06850
635.52090,0.06859
636.48527,0.06875
637.44964,0.06899
638.41401,0.06929
639.37838,0.06958
640.34275,0.06981
641.30713,0.06995
642.27150,0.06998
643.23587,0.06993
644.20024,0.06982
645.16461,0.06967
646.12898,0.06947
647.09335,0.06924
648.05773,0.06904
649.02210,0.06892
649.98647,0.06889
650.95084,0.06895
651.91521,0.06911
652.87958,0.06930
653.84396,0.06940
654.80833,0.06935
655.77270,0.06920
656.73707,0.06907
657.70144,0.06899
658.66581,0.06891
659.63019,0.06879
660.59456,0.06868
661.55893,0.06859
662.52330,0.06850
663.48767,0.06838
664.45204,0.06828
665.41642,0.06818
666.38079,0.06809
667.34516,0.06798
668.30953,0.06787
669.27390,0.06778
670.23827,0.06768
671.20265,0.06757
672.16702,0.06747
673.13139,0.06737
674.09576,0.06727
675.06013,0.06717
676.02450,0.06707
676.98887,0.06696
677.95325,0.06685
678.91762,0.06676
679.88199,0.06668
680.84636,0.06656
681.81073,0.06641
682.77510,0.06635
683.73948,0.06645
684.70385,0.06663
685.66822,0.06673
686.63259,0.06670
687.59696,0.06664
688.56133,0.06657
689.52571,0.06647
690.49008,0.06638
691.45445,0.06641
692.41882,0.06664
693.38319,0.06703
694.34756,0.06749
695.31194,0.06793
696.27631,0.06829
697.24068,0.06849
698.20505,0.06852
699.16942,0.06841
700.13379,0.06820
701.09817,0.06788
702.06254,0.06741
703.02691,0.06682
703.99128,0.06613
704.95565,0.06536
705.92002,0.06452
706.88440,0.06364
707.84877,0.06275
708.81314,0.06185
709.77751,0.06097
710.74188,0.06016
711.70625,0.05945
712.67062,0.05881
713.63500,0.05824
714.59937,0.05774
715.56374,0.05730
716.52811,0.05691
717.49248,0.05651
718.45685,0.05612
719.42123,0.05572
720.38560,0.05534
721.34997,0.05495
722.31434,0.05460
723.27871,0.05425
724.24308,0.05387
725.20746,0.05340
726.17183,0.05283
727.13620,0.05220
728.10057,0.05153
729.06494,0.05083
730.02931,0.05012
730.99369,0.04946
731.95806,0.04885
732.92243,0.04833
733.88680,0.04790
734.85117,0.04758
735.81554,0.04736
736.77992,0.04722
737.74429,0.04714
738.70866,0.04709
739.67303,0.04705
740.63740,0.04702
741.60177,0.04702
742.56614,0.04704
743.53052,0.04704
744.49489,0.04694
745.45926,0.04673
746.42363,0.04641
747.38800,0.04602
748.35237,0.04559
749.31675,0.04517
750.28112,0.04477
751.24549,0.04438
752.20986,0.04399
753.17423,0.04360
754.13860,0.04322
755.10298,0.04284
756.06735,0.04242
757.03172,0.04200
757.99609,0.04161
758.96046,0.04128
759.92483,0.04103
760.88921,0.04085
761.85358,0.04072
762.81795,0.04063
763.78232,0.04053
764.74669,0.04043
765.71106,0.04028
766.67544,0.04007
767.63981,0.03977
768.60418,0.03940
769.56855,0.03904
770.53292,0.03876
771.49729,0.03861
772.46167,0.03867
773.42604,0.03895
774.39041,0.03946
775.35478,0.04022
776.31915,0.04121
777.28352,0.04233
778.24789,0.04343
779.21227,0.04434
780.17664,0.04491
781.14101,0.04510
782.10538,0.04496
783.06975,0.04460
784.03412,0.04416
784.99850,0.04372
785.96287,0.04332
786.92724,0.04297
787.89161,0.04264
788.85598,0.04234
789.82035,0.04210
790.78473,0.04196
791.74910,0.04196
792.71347,0.04210
793.67784,0.04237
794.64221,0.04271
795.60658,0.04304
796.57096,0.04327
797.53533,0.04337
798.49970,0.04333
799.46407,0.04321
800.42844,0.04305
801.39281,0.04290
802.35719,0.04281
803.32156,0.04278
804.28593,0.04281
805.25030,0.04287
806.21467,0.04294
807.17904,0.04300
808.14341,0.04304
809.10779,0.04308
810.07216,0.04310
811.03653,0.04310
812.00090,0.04307
812.96527,0.04299
813.92964,0.04286
814.89402,0.04267
815.85839,0.04243
816.82276,0.04216
817.78713,0.04187
818.75150,0.04158
819.71587,0.04131
820.68025,0.04109
821.64462,0.04091
822.60899,0.04078
823.57336,0.04065
824.53773,0.04051
825.50210,0.04032
826.46648,0.04007
827.43085,0.03976
828.39522,0.03940
829.35959,0.03899
830.32396,0.03851
831.28833,0.03799
832.25271,0.03745
833.21708,0.03691
834.18145,0.03642
835.14582,0.03598
836.11019,0.03561
837.07456,0.03532
838.03893,0.03512
839.00331,0.03498
839.96768,0.03490
840.93205,0.03487
841.89642,0.03490
842.86079,0.03500
843.82516,0.03519
844.78954,0.03546
845.75391,0.03584
846.71828,0.03630
847.68265,0.03684
848.64702,0.03744
849.61139,0.03810
850.57577,0.03879
851.54014,0.03951
852.50451,0.04026
853.46888,0.04103
854.43325,0.04176
855.39762,0.04243
856.36200,0.04298
857.32637,0.04341
858.29074,0.04370
859.25511,0.04389
860.21948,0.04397
861.18385,0.04397
862.14823,0.04388
863.11260,0.04372
864.07697,0.04351
865.04134,0.04327
866.00571,0.04302
866.97008,0.04278
867.93446,0.04254
868.89883,0.04229
869.86320,0.04203
870.82757,0.04176
871.79194,0.04153
872.75631,0.04136
873.72068,0.04126
874.68506,0.04123
875.64943,0.04125
876.61380,0.04131
877.57817,0.04139
878.54254,0.04146
879.50691,0.04148
880.47129,0.04141
881.43566,0.04127
882.40003,0.04107
883.36440,0.04083
884.32877,0.04055
885.29314,0.04020
886.25752,0.03980
887.22189,0.03934
888.18626,0.03886
889.15063,0.03839
890.11500,0.03792
891.07937,0.03747
892.04375,0.03704
893.00812,0.03664
893.97249,0.03628
894.93686,0.03597
895.90123,0.03571
896.86560,0.03549
897.82998,0.03531
898.79435,0.03520
899.75872,0.03518
900.72309,0.03525
901.68746,0.03545
902.65183,0.03577
903.61620,0.03622
904.58058,0.03678
905.54495,0.03744
906.50932,0.03818
907.47369,0.03897
908.43806,0.03975
909.40243,0.04054
910.36681,0.04132
911.33118,0.04209
912.29555,0.04279
913.25992,0.04336
914.22429,0.04377
915.18866,0.04400
916.15304,0.04402
917.11741,0.04386
918.08178,0.04353
919.04615,0.04306
920.01052,0.04248
920.97489,0.04185
921.93927,0.04121
922.90364,0.04057
923.86801,0.03990
924.83238,0.03924
925.79675,0.03861
926.76112,0.03806
927.72550,0.03765
928.68987,0.03738
929.65424,0.03723
930.61861,0.03717
931.58298,0.03714
932.54735,0.03713
933.51173,0.03711
934.47610,0.03706
935.44047,0.03696
936.40484,0.03683
937.36921,0.03668
938.33358,0.03653
939.29795,0.03641
940.26233,0.03630
941.22670,0.03622
942.19107,0.03614
943.15544,0.03608
944.11981,0.03610
945.08418,0.03622
946.04856,0.03647
947.01293,0.03683
947.97730,0.03728
948.94167,0.03783
949.90604,0.03848
950.87041,0.03921
951.83479,0.04005
952.79916,0.04099
953.76353,0.04204
954.72790,0.04317
955.69227,0.04439
956.65664,0.04568
957.62102,0.04700
958.58539,0.04830
959.54976,0.04959
960.51413,0.05085
961.47850,0.05205
962.44287,0.05314
963.40725,0.05408
964.37162,0.05484
965.33599,0.05541
966.30036,0.05581
967.26473,0.05604
968.22910,0.05613
969.19347,0.05604
970.15785,0.05577
971.12222,0.05536
972.08659,0.05486
973.05096,0.05431
974.01533,0.05374
974.97970,0.05316
975.94408,0.05260
976.90845,0.05209
977.87282,0.05165
978.83719,0.05130
979.80156,0.05106
980.76593,0.05092
981.73031,0.05084
982.69468,0.05085
983.65905,0.05096
984.62342,0.05119
985.58779,0.05150
986.55216,0.05191
987.51654,0.05239
988.48091,0.05293
989.44528,0.05348
990.40965,0.05402
991.37402,0.05454
992.33839,0.05499
993.30277,0.05537
994.26714,0.05566
995.23151,0.05587
996.19588,0.05596
997.16025,0.05593
998.12462,0.05582
999.08899,0.05571
1000.05337,0.05564
1001.01774,0.05564
1001.98211,0.05569
1002.94648,0.05579
1003.91085,0.05594
1004.87522,0.05617
1005.83960,0.05651
1006.80397,0.05697
1007.76834,0.05751
1008.73271,0.05811
1009.69708,0.05879
1010.66145,0.05960
1011.62583,0.06054
1012.59020,0.06158
1013.55457,0.06269
1014.51894,0.06386
1015.48331,0.06509
1016.44768,0.06641
1017.41206,0.06785
1018.37643,0.06942
1019.34080,0.07106
1020.30517,0.07273
1021.26954,0.07445
1022.23391,0.07622
1023.19829,0.07800
1024.16266,0.07975
1025.12703,0.08146
1026.09140,0.08314
1027.05577,0.08482
1028.02014,0.08649
1028.98452,0.08816
1029.94889,0.08978
1030.91326,0.09131
1031.87763,0.09274
1032.84200,0.09414
1033.80637,0.09557
1034.77074,0.09704
1035.73512,0.09852
1036.69949,0.10002
1037.66386,0.10154
1038.62823,0.10310
1039.59260,0.10467
1040.55697,0.10623
1041.52135,0.10775
1042.48572,0.10924
1043.45009,0.11069
1044.41446,0.11220
1045.37883,0.11380
1046.34320,0.11550
1047.30758,0.11732
1048.27195,0.11927
1049.23632,0.12139
1050.20069,0.12364
1051.16506,0.12595
1052.12943,0.12825
1053.09381,0.13051
1054.05818,0.13271
1055.02255,0.13487
1055.98692,0.13699
1056.95129,0.13902
1057.91566,0.14088
1058.88004,0.14251
1059.84441,0.14395
1060.80878,0.14523
1061.77315,0.14637
1062.73752,0.14732
1063.70189,0.14808
1064.66626,0.14870
1065.63064,0.14926
1066.59501,0.14988
1067.55938,0.15061
1068.52375,0.15146
1069.48812,0.15237
1070.45249,0.15330
1071.41687,0.15427
1072.38124,0.15530
1073.34561,0.15639
1074.30998,0.15752
1075.27435,0.15869
1076.23872,0.15994
1077.20310,0.16127
1078.16747,0.16267
1079.13184,0.16410
1080.09621,0.16548
1081.06058,0.16674
1082.02495,0.16782
1082.98933,0.16870
1083.95370,0.16934
1084.91807,0.16964
1085.88244,0.16952
1086.84681,0.16897
1087.81118,0.16809
1088.77556,0.16697
1089.73993,0.16570
1090.70430,0.16433
1091.66867,0.16293
1092.63304,0.16153
1093.59741,0.16018
1094.56179,0.15896
1095.52616,0.15787
1096.49053,0.15688
1097.45490,0.15592
1098.41927,0.15500
1099.38364,0.15415
1100.34801,0.15334
1101.31239,0.15250
1102.27676,0.15159
1103.24113,0.15057
1104.20550,0.14941
1105.16987,0.14814
1106.13424,0.14679
1107.09862,0.14539
1108.06299,0.14392
1109.02736,0.14239
1109.99173,0.14086
1110.95610,0.13938
1111.92047,0.13798
1112.88485,0.13660
1113.84922,0.13525
1114.81359,0.13395
1115.77796,0.13268
1116.74233,0.13143
1117.70670,0.13017
1118.67108,0.12881
1119.63545,0.12730
1120.59982,0.12562
1121.56419,0.12385
1122.52856,0.12209
1123.49293,0.12033
1124.45731,0.11852
1125.42168,0.11664
1126.38605,0.11471
1127.35042,0.11275
1128.31479,0.11078
1129.27916,0.10879
1130.24353,0.10674
1131.20791,0.10461
1132.17228,0.10238
1133.13665,0.10013
1134.10102,0.09793
1135.06539,0.09577
1136.02976,0.09361
1136.99414,0.09148
1137.95851,0.08942
1138.92288,0.08744
1139.88725,0.08557
1140.85162,0.08381
1141.81599,0.08219
1142.78037,0.08073
1143.74474,0.07946
1144.70911,0.07843
1145.67348,0.07762
1146.63785,0.07693
1147.60222,0.07626
1148.56660,0.07561
1149.53097,0.07503
1150.49534,0.07453
1151.45971,0.07410
1152.42408,0.07371
1153.38845,0.07334
1154.35283,0.07295
1155.31720,0.07255
1156.28157,0.07218
1157.24594,0.07184
1158.21031,0.07152
1159.17468,0.07120
1160.13905,0.07091
1161.10343,0.07068
1162.06780,0.07050
1163.03217,0.07030
1163.99654,0.07010
1164.96091,0.06993
1165.92528,0.06983
1166.88966,0.06980
1167.85403,0.06983
1168.81840,0.06986
1169.78277,0.06981
1170.74714,0.06965
1171.71151,0.06939
1172.67589,0.06906
1173.64026,0.06857
1174.60463,0.06786
1175.56900,0.06695
1176.53337,0.06589
1177.49774,0.06479
1178.46212,0.06370
1179.42649,0.06266
1180.39086,0.06170
1181.35523,0.06080
1182.31960,0.05996
1183.28397,0.05924
1184.24835,0.05865
1185.21272,0.05814
1186.17709,0.05765
1187.14146,0.05719
1188.10583,0.05681
1189.07020,0.05655
1190.03458,0.05642
1190.99895,0.05643
1191.96332,0.05658
1192.92769,0.05687
1193.89206,0.05731
1194.85643,0.05793
1195.82080,0.05876
1196.78518,0.05973
1197.74955,0.06079
1198.71392,0.06196
1199.67829,0.06332
1200.64266,0.06488
1201.60703,0.06662
1202.57141,0.06852
1203.53578,0.07057
1204.50015,0.07273
1205.46452,0.07497
1206.42889,0.07731
1207.39326,0.07974
1208.35764,0.08222
1209.32201,0.08471
1210.28638,0.08728
1211.25075,0.08995
1212.21512,0.09273
1213.17949,0.09557
1214.14387,0.09848
1215.10824,0.10147
1216.07261,0.10450
1217.03698,0.10755
1218.00135,0.11059
1218.96572,0.11358
1219.93010,0.11648
1220.89447,0.11925
1221.85884,0.12196
1222.82321,0.12464
1223.78758,0.12729
1224.75195,0.12988
1225.71632,0.13242
1226.68070,0.13492
1227.64507,0.13737
1228.60944,0.13976
1229.57381,0.14211
1230.53818,0.14441
1231.50255,0.14664
1232.46693,0.14880
1233.43130,0.15090
1234.39567,0.15295
1235.36004,0.15487
1236.32441,0.15656
1237.28878,0.15802
1238.25316,0.15927
1239.21753,0.16034
1240.18190,0.16121
1241.14627,0.16189
1242.11064,0.16238
1243.07501,0.16265
1244.03939,0.16267
1245.00376,0.16249
1245.96813,0.16212
1246.93250,0.16150
1247.89687,0.16061
1248.86124,0.15947
1249.82562,0.15815
1250.78999,0.15668
1251.75436,0.15506
1252.71873,0.15331
1253.68310,0.15143
1254.64747,0.14942
1255.61185,0.14725
1256.57622,0.14498
1257.54059,0.14261
1258.50496,0.14014
1259.46933,0.13757
1260.43370,0.13500
1261.39807,0.13250
1262.36245,0.13007
1263.32682,0.12765
1264.29119,0.12521
1265.25556,0.12277
1266.21993,0.12035
1267.18430,0.11799
1268.14868,0.11572
1269.11305,0.11354
1270.07742,0.11141
1271.04179,0.10934
1272.00616,0.10740
1272.97053,0.10567
1273.93491,0.10410
1274.89928,0.10261
1275.86365,0.10119
1276.82802,0.09986
1277.79239,0.09866
1278.75676,0.09757
1279.72114,0.09655
1280.68551,0.09558
1281.64988,0.09459
1282.61425,0.09359
1283.57862,0.09267
1284.54299,0.09186
1285.50737,0.09111
1286.47174,0.09033
1287.43611,0.08952
1288.40048,0.08872
1289.36485,0.08795
1290.32922,0.08721
1291.29359,0.08651
1292.25797,0.08582
1293.22234,0.08513
1294.18671,0.08442
1295.15108,0.08377
1296.11545,0.08320
1297.07982,0.08267
1298.04420,0.08214
1299.00857,0.08160
1299.97294,0.08110
1300.93731,0.08061
1301.90168,0.08007
1302.86605,0.07949
1303.83043,0.07887
1304.79480,0.07825
1305.75917,0.07764
1306.72354,0.07710
1307.68791,0.07661
1308.65228,0.07612
1309.61666,0.07556
1310.58103,0.07497
1311.54540,0.07438
1312.50977,0.07377
1313.47414,0.07308
1314.43851,0.07231
1315.40289,0.07146
1316.36726,0.07054
1317.33163,0.06955
1318.29600,0.06853
1319.26037,0.06752
1320.22474,0.06653
1321.18911,0.06555
1322.15349,0.06464
1323.11786,0.06385
1324.08223,0.06313
1325.04660,0.06243
1326.01097,0.06176
1326.97534,0.06116
1327.93972,0.06064
1328.90409,0.06016
1329.86846,0.05973
1330.83283,0.05934
1331.79720,0.05894
1332.76157,0.05854
1333.72595,0.05819
1334.69032,0.05792
1335.65469,0.05767
1336.61906,0.05738
1337.58343,0.05703
1338.54780,0.05665
1339.51218,0.05619
1340.47655,0.05560
1341.44092,0.05490
1342.40529,0.05415
1343.36966,0.05339
1344.33403,0.05266
1345.29841,0.05201
1346.26278,0.05143
1347.22715,0.05085
1348.19152,0.05027
1349.15589,0.04976
1350.12026,0.04942
1351.08464,0.04924
1352.04901,0.04914
1353.01338,0.04910
1353.97775,0.04912
1354.94212,0.04919
1355.90649,0.04935
1356.87086,0.04962
1357.83524,0.05000
1358.79961,0.05039
1359.76398,0.05075
1360.72835,0.05116
1361.69272,0.05177
1362.65709,0.05269
1363.62147,0.05394
1364.58584,0.05552
1365.55021,0.05731
1366.51458,0.05917
1367.47895,0.06095
1368.44332,0.06259
1369.40770,0.06405
1370.37207,0.06529
1371.33644,0.06637
1372.30081,0.06746
1373.26518,0.06870
1374.22955,0.07007
1375.19393,0.07152
1376.15830,0.07303
1377.12267,0.07461
1378.08704,0.07628
1379.05141,0.07801
1380.01578,0.07982
1380.98016,0.08172
1381.94453,0.08369
1382.90890,0.08574
1383.87327,0.08790
1384.83764,0.09020
1385.80201,0.09248
1386.76638,0.09458
1387.73076,0.09643
1388.69513,0.09804
1389.65950,0.09947
1390.62387,0.10080
1391.58824,0.10215
1392.55261,0.10360
1393.51699,0.10513
1394.48136,0.10660
1395.44573,0.10786
1396.41010,0.10876
1397.37447,0.10923
1398.33884,0.10937
1399.30322,0.10942
1400.26759,0.10950
1401.23196,0.10952
1402.19633,0.10931
1403.16070,0.10876
1404.12507,0.10790
1405.08945,0.10681
1406.05382,0.10560
1407.01819,0.10435
1407.98256,0.10304
1408.94693,0.10158
1409.91130,0.09993
1410.87568,0.09820
1411.84005,0.09651
1412.80442,0.09488
1413.76879,0.09327
1414.73316,0.09174
1415.69753,0.09034
1416.66191,0.08898
1417.62628,0.08746
1418.59065,0.08564
1419.55502,0.08351
1420.51939,0.08112
1421.48376,0.07866
1422.44813,0.07631
1423.41251,0.07419
1424.37688,0.07225
1425.34125,0.07044
1426.30562,0.06883
1427.26999,0.06747
1428.23436,0.06640
1429.19874,0.06565
1430.16311,0.06534
1431.12748,0.06555
1432.09185,0.06631
1433.05622,0.06766
1434.02059,0.06969
1434.98497,0.07234
1435.94934,0.07511
1436.91371,0.07732
1437.87808,0.07860
1438.84245,0.07915
1439.80682,0.07944
1440.77120,0.07988
1441.73557,0.08065
1442.69994,0.08172
1443.66431,0.08299
1444.62868,0.08440
1445.59305,0.08595
1446.55743,0.08752
1447.52180,0.08888
1448.48617,0.08984
1449.45054,0.09043
1450.41491,0.09085
1451.37928,0.09129
1452.34365,0.09183
1453.30803,0.09250
1454.27240,0.09322
1455.23677,0.09378
1456.20114,0.09382
1457.16551,0.09302
1458.12988,0.09135
1459.09426,0.08912
1460.05863,0.08682
1461.02300,0.08488
1461.98737,0.08352
1462.95174,0.08262
1463.91611,0.08197
1464.88049,0.08133
1465.84486,0.08052
1466.80923,0.07947
1467.77360,0.07818
1468.73797,0.07675
1469.70234,0.07514
1470.66672,0.07318
1471.63109,0.07078
1472.59546,0.06806
1473.55983,0.06526
1474.52420,0.06261
1475.48857,0.06026
1476.45295,0.05832
1477.41732,0.05688
1478.38169,0.05596
1479.34606,0.05552
1480.31043,0.05553
1481.27480,0.05591
1482.23917,0.05660
1483.20355,0.05761
1484.16792,0.05904
1485.13229,0.06100
1486.09666,0.06344
1487.06103,0.06627
1488.02540,0.06941
1488.98978,0.07277
1489.95415,0.07623
1490.91852,0.07961
1491.88289,0.08285
1492.84726,0.08600
1493.81163,0.08924
1494.77601,0.09282
1495.74038,0.09696
1496.70475,0.10165
1497.66912,0.10663
1498.63349,0.11157
1499.59786,0.11633
1500.56224,0.12093
1501.52661,0.12545
1502.49098,0.13001
1503.45535,0.13489
1504.41972,0.14058
1505.38409,0.14751
1506.34847,0.15562
1507.31284,0.16417
1508.27721,0.17218
1509.24158,0.17921
1510.20595,0.18567
1511.17032,0.19238
1512.13470,0.19973
1513.09907,0.20754
1514.06344,0.21555
1515.02781,0.22358
1515.99218,0.23142
1516.95655,0.23861
1517.92092,0.24475
1518.88530,0.24996
1519.84967,0.25487
1520.81404,0.26011
1521.77841,0.26592
1522.74278,0.27210
1523.70715,0.27818
1524.67153,0.28391
1525.63590,0.28935
1526.60027,0.29479
1527.56464,0.30030
1528.52901,0.30567
1529.49338,0.31082
1530.45776,0.31600
1531.42213,0.32157
1532.38650,0.32752
1533.35087,0.33345
1534.31524,0.33884
1535.27961,0.34337
1536.24399,0.34715
1537.20836,0.35073
1538.17273,0.35486
1539.13710,0.35976
1540.10147,0.36481
1541.06584,0.36885
1542.03022,0.37118
1542.99459,0.37190
1543.95896,0.37152
1544.92333,0.37038
1545.88770,0.36849
1546.85207,0.36587
1547.81644,0.36257
1548.78082,0.35860
1549.74519,0.35383
1550.70956,0.34813
1551.67393,0.34157
1552.63830,0.33433
1553.60267,0.32669
1554.56705,0.31909
1555.53142,0.31199
1556.49579,0.30532
1557.46016,0.29814
1558.42453,0.28943
1559.38890,0.27933
1560.35328,0.26937
1561.31765,0.26108
1562.28202,0.25463
1563.24639,0.24908
1564.21076,0.24365
1565.17513,0.23836
1566.13951,0.23351
1567.10388,0.22908
1568.06825,0.22482
1569.03262,0.22054
1569.99699,0.21618
1570.96136,0.21176
1571.92574,0.20752
1572.89011,0.20374
1573.85448,0.20041
1574.81885,0.19715
1575.78322,0.19369
1576.74759,0.19014
1577.71197,0.18681
1578.67634,0.18381
1579.64071,0.18108
1580.60508,0.17860
1581.56945,0.17638
1582.53382,0.17434
1583.49819,0.17249
1584.46257,0.17092
1585.42694,0.16974
1586.39131,0.16886
1587.35568,0.16821
1588.32005,0.16789
1589.28442,0.16800
1590.24880,0.16849
1591.21317,0.16925
1592.17754,0.17026
1593.14191,0.17150
1594.10628,0.17288
1595.07065,0.17431
1596.03503,0.17584
1596.99940,0.17751
1597.96377,0.17930
1598.92814,0.18122
1599.89251,0.18336
1600.85688,0.18575
1601.82126,0.18830
1602.78563,0.19095
1603.75000,0.19375
1604.71437,0.19684
1605.67874,0.20021
1606.64311,0.20389
1607.60749,0.20802
1608.57186,0.21268
1609.53623,0.21783
1610.50060,0.22335
1611.46497,0.22924
1612.42934,0.23553
1613.39371,0.24231
1614.35809,0.24989
1615.32246,0.25874
1616.28683,0.26897
1617.25120,0.27990
1618.21557,0.29053
1619.17994,0.30042
1620.14432,0.31012
1621.10869,0.32077
1622.07306,0.33324
1623.03743,0.34768
1624.00180,0.36344
1624.96617,0.37970
1625.93055,0.39609
1626.89492,0.41279
1627.85929,0.43006
1628.82366,0.44770
1629.78803,0.46505
1630.75240,0.48144
1631.71678,0.49671
1632.68115,0.51142
1633.64552,0.52657
1634.60989,0.54273
1635.57426,0.55912
1636.53863,0.57394
1637.50301,0.58579
1638.46738,0.59474
1639.43175,0.60185
1640.39612,0.60809
1641.36049,0.61383
1642.32486,0.61923
1643.28923,0.62456
1644.25361,0.63023
1645.21798,0.63654
1646.18235,0.64343
1647.14672,0.65035
1648.11109,0.65640
1649.07546,0.66117
1650.03984,0.66534
1651.00421,0.67018
1651.96858,0.67613
1652.93295,0.68213
1653.89732,0.68636
1654.86169,0.68765
1655.82607,0.68612
1656.79044,0.68274
1657.75481,0.67838
1658.71918,0.67325
1659.68355,0.66713
1660.64792,0.65975
1661.61230,0.65096
1662.57667,0.64071
1663.54104,0.62915
1664.50541,0.61693
1665.46978,0.60491
1666.43415,0.59341
1667.39853,0.58183
1668.36290,0.56938
1669.32727,0.55600
1670.29164,0.54245
1671.25601,0.52957
1672.22038,0.51755
1673.18476,0.50597
1674.14913,0.49418
1675.11350,0.48181
1676.07787,0.46912
1677.04224,0.45676
1678.00661,0.44520
1678.97098,0.43435
1679.93536,0.42392
1680.89973,0.41374
1681.86410,0.40349
1682.82847,0.39240
1683.79284,0.37980
1684.75721,0.36604
1685.72159,0.35240
1686.68596,0.33991
1687.65033,0.32854
1688.61470,0.31749
1689.57907,0.30615
1690.54344,0.29460
1691.50782,0.28327
1692.47219,0.27239
1693.43656,0.26162
1694.40093,0.25031
1695.36530,0.23824
1696.32967,0.22594
1697.29405,0.21407
1698.25842,0.20254
1699.22279,0.19063
1700.18716,0.17807
1701.15153,0.16569
1702.11590,0.15468
1703.08028,0.14546
1704.04465,0.13747
1705.00902,0.12989
1705.97339,0.12237
1706.93776,0.11506
1707.90213,0.10821
1708.86650,0.10193
1709.83088,0.09613
1710.79525,0.09067
1711.75962,0.08547
1712.72399,0.08052
1713.68836,0.07581
1714.65273,0.07122
1715.61711,0.06652
1716.58148,0.06152
1717.54585,0.05620
1718.51022,0.05082
1719.47459,0.04573
1720.43896,0.04118
1721.40334,0.03714
1722.36771,0.03346
1723.33208,0.03001
1724.29645,0.02678
1725.26082,0.02381
1726.22519,0.02113
1727.18957,0.01878
1728.15394,0.01674
1729.11831,0.01494
1730.08268,0.01337
1731.04705,0.01206
1732.01142,0.01099
1732.97580,0.01000
1733.94017,0.00889
1734.90454,0.00761
1735.86891,0.00625
1736.83328,0.00492
1737.79765,0.00364
1738.76203,0.00241
1739.72640,0.00116
1740.69077,-0.00019
1741.65514,-0.00172
1742.61951,-0.00341
1743.58388,-0.00518
1744.54825,-0.00704
1745.51263,-0.00896
1746.47700,-0.01091
1747.44137,-0.01288
1748.40574,-0.01494
1749.37011,-0.01717
1750.33448,-0.01959
1751.29886,-0.02211
1752.26323,-0.02461
1753.22760,-0.02692
1754.19197,-0.02894
1755.15634,-0.03068
1756.12071,-0.03225
1757.08509,-0.03375
1758.04946,-0.03517
1759.01383,-0.03646
1759.97820,-0.03763
1760.94257,-0.03871
1761.90694,-0.03970
1762.87132,-0.04058
1763.83569,-0.04137
1764.80006,-0.04207
1765.76443,-0.04266
1766.72880,-0.04312
1767.69317,-0.04350
1768.65755,-0.04388
1769.62192,-0.04423
1770.58629,-0.04454
1771.55066,-0.04490
1772.51503,-0.04537
1773.47940,-0.04594
1774.44377,-0.04650
1775.40815,-0.04700
1776.37252,-0.04743
1777.33689,-0.04778
1778.30126,-0.04805
1779.26563,-0.04830
1780.23000,-0.04856
1781.19438,-0.04880
1782.15875,-0.04899
1783.12312,-0.04915
1784.08749,-0.04932
1785.05186,-0.04948
1786.01623,-0.04962
1786.98061,-0.04980
1787.94498,-0.04999
1788.90935,-0.05009
1789.87372,-0.05001
1790.83809,-0.04980
1791.80246,-0.04960
1792.76684,-0.04951
1793.73121,-0.04959
1794.69558,-0.04986
1795.65995,-0.05025
1796.62432,-0.05061
1797.58869,-0.05082
1798.55307,-0.05090
1799.51744,-0.05094
1800.48181,-0.05097
1801.44618,-0.05103
1802.41055,-0.05116
1803.37492,-0.05139
1804.33929,-0.05162
1805.30367,-0.05176
1806.26804,-0.05182
1807.23241,-0.05181
1808.19678,-0.05173
1809.16115,-0.05161
1810.12552,-0.05153
1811.08990,-0.05156
1812.05427,-0.05166
1813.01864,-0.05172
1813.98301,-0.05176
1814.94738,-0.05178
1815.91175,-0.05177
1816.87613,-0.05172
1817.84050,-0.05169
1818.80487,-0.05172
1819.76924,-0.05173
1820.73361,-0.05165
1821.69798,-0.05153
1822.66236,-0.05141
1823.62673,-0.05126
1824.59110,-0.05108
1825.55547,-0.05093
1826.51984,-0.05088
1827.48421,-0.05090
1828.44859,-0.05095
1829.41296,-0.05103
1830.37733,-0.05117
1831.34170,-0.05132
1832.30607,-0.05141
1833.27044,-0.05146
1834.23482,-0.05148
1835.19919,-0.05141
1836.16356,-0.05127
1837.12793,-0.05113
1838.09230,-0.05105
1839.05667,-0.05101
1840.02104,-0.05093
1840.98542,-0.05082
1841.94979,-0.05068
1842.91416,-0.05052
1843.87853,-0.05035
1844.84290,-0.05025
1845.80727,-0.05025
1846.77165,-0.05026
1847.73602,-0.05021
1848.70039,-0.05015
1849.66476,-0.05014
1850.62913,-0.05015
1851.59350,-0.05012
1852.55788,-0.05007
1853.52225,-0.05003
1854.48662,-0.04997
1855.45099,-0.04987
1856.41536,-0.04979
1857.37973,-0.04972
1858.34411,-0.04963
1859.30848,-0.04948
1860.27285,-0.04934
1861.23722,-0.04927
1862.20159,-0.04922
1863.16596,-0.04912
1864.13034,-0.04897
1865.09471,-0.04879
1866.05908,-0.04859
1867.02345,-0.04836
1867.98782,-0.04818
1868.95219,-0.04809
1869.91656,-0.04802
1870.88094,-0.04793
1871.84531,-0.04786
1872.80968,-0.04783
1873.77405,-0.04778
1874.73842,-0.04762
1875.70279,-0.04744
1876.66717,-0.04731
1877.63154,-0.04725
1878.59591,-0.04721
1879.56028,-0.04720
1880.52465,-0.04717
1881.48902,-0.04708
1882.45340,-0.04689
1883.41777,-0.04670
1884.38214,-0.04657
1885.34651,-0.04644
1886.31088,-0.04621
1887.27525,-0.04592
1888.23963,-0.04567
1889.20400,-0.04548
1890.16837,-0.04536
1891.13274,-0.04530
1892.09711,-0.04531
1893.06148,-0.04529
1894.02586,-0.04524
1894.99023,-0.04520
1895.95460,-0.04522
1896.91897,-0.04523
1897.88334,-0.04516
1898.84771,-0.04506
1899.81209,-0.04500
1900.77646,-0.04495
1901.74083,-0.04482
1902.70520,-0.04465
1903.66957,-0.04448
1904.63394,-0.04434
1905.59831,-0.04421
1906.56269,-0.04414
1907.52706,-0.04410
1908.49143,-0.04401
1909.45580,-0.04382
1910.42017,-0.04364
1911.38454,-0.04355
1912.34892,-0.04350
1913.31329,-0.04338
1914.27766,-0.04321
1915.24203,-0.04305
1916.20640,-0.04290
1917.17077,-0.04276
1918.13515,-0.04265
1919.09952,-0.04257
1920.06389,-0.04242
1921.02826,-0.04221
1921.99263,-0.04202
1922.95700,-0.04195
1923.92138,-0.04194
1924.88575,-0.04191
1925.85012,-0.04184
1926.81449,-0.04177
1927.77886,-0.04170
1928.74323,-0.04162
1929.70761,-0.04154
1930.67198,-0.04150
1931.63635,-0.04143
1932.60072,-0.04131
1933.56509,-0.04119
1934.52946,-0.04111
1935.49383,-0.04097
1936.45821,-0.04074
1937.42258,-0.04049
1938.38695,-0.04030
1939.35132,-0.04016
1940.31569,-0.03999
1941.28006,-0.03980
1942.24444,-0.03963
1943.20881,-0.03951
1944.17318,-0.03944
1945.13755,-0.03948
1946.10192,-0.03957
1947.06629,-0.03959
1948.03067,-0.03945
1948.99504,-0.03924
1949.95941,-0.03909
1950.92378,-0.03898
1951.88815,-0.03887
1952.85252,-0.03874
1953.81690,-0.03862
1954.78127,-0.03848
1955.74564,-0.03832
1956.71001,-0.03819
1957.67438,-0.03810
1958.63875,-0.03799
1959.60313,-0.03780
1960.56750,-0.03762
1961.53187,-0.03753
1962.49624,-0.03748
1963.46061,-0.03739
1964.42498,-0.03727
1965.38935,-0.03720
1966.35373,-0.03716
1967.31810,-0.03710
1968.28247,-0.03704
1969.24684,-0.03697
1970.21121,-0.03683
1971.17558,-0.03664
1972.13996,-0.03650
1973.10433,-0.03645
1974.06870,-0.03640
1975.03307,-0.03621
1975.99744,-0.03593
1976.96181,-0.03569
1977.92619,-0.03552
1978.89056,-0.03540
1979.85493,-0.03535
1980.81930,-0.03534
1981.78367,-0.03530
1982.74804,-0.03521
1983.71242,-0.03514
1984.67679,-0.03513
1985.64116,-0.03509
1986.60553,-0.03492
1987.56990,-0.03468
1988.53427,-0.03448
1989.49865,-0.03429
1990.46302,-0.03409
1991.42739,-0.03391
1992.39176,-0.03380
1993.35613,-0.03374
1994.32050,-0.03370
1995.28488,-0.03372
1996.24925,-0.03377
1997.21362,-0.03373
1998.17799,-0.03354
1999.14236,-0.03332
2000.10673,-0.03319
2001.07110,-0.03313
2002.03548,-0.03303
2002.99985,-0.03289
2003.96422,-0.03275
2004.92859,-0.03262
2005.89296,-0.03251
2006.85733,-0.03248
2007.82171,-0.03255
2008.78608,-0.03262
2009.75045,-0.03261
2010.71482,-0.03258
2011.67919,-0.03256
2012.64356,-0.03248
2013.60794,-0.03226
2014.57231,-0.03197
2015.53668,-0.03174
2016.50105,-0.03161
2017.46542,-0.03154
2018.42979,-0.03151
2019.39417,-0.03149
2020.35854,-0.03142
2021.32291,-0.03128
2022.28728,-0.03120
2023.25165,-0.03121
2024.21602,-0.03121
2025.18040,-0.03108
2026.14477,-0.03088
2027.10914,-0.03071
2028.07351,-0.03061
2029.03788,-0.03053
2030.00225,-0.03047
2030.96662,-0.03045
2031.93100,-0.03038
2032.89537,-0.03026
2033.85974,-0.03017
2034.82411,-0.03016
2035.78848,-0.03014
2036.75285,-0.03003
2037.71723,-0.02990
2038.68160,-0.02983
2039.64597,-0.02980
2040.61034,-0.02970
2041.57471,-0.02956
2042.53908,-0.02941
2043.50346,-0.02927
2044.46783,-0.02914
2045.43220,-0.02909
2046.39657,-0.02914
2047.36094,-0.02918
2048.32531,-0.02917
2049.28969,-0.02916
2050.25406,-0.02923
2051.21843,-0.02929
2052.18280,-0.02920
2053.14717,-0.02902
2054.11154,-0.02884
2055.07592,-0.02871
2056.04029,-0.02862
2057.00466,-0.02858
2057.96903,-0.02857
2058.93340,-0.02851
2059.89777,-0.02841
2060.86215,-0.02839
2061.82652,-0.02849
2062.79089,-0.02859
2063.75526,-0.02853
2064.71963,-0.02834
2065.68400,-0.02813
2066.64837,-0.02798
2067.61275,-0.02786
2068.57712,-0.02780
2069.54149,-0.02777
2070.50586,-0.02771
2071.47023,-0.02758
2072.43460,-0.02750
2073.39898,-0.02753
2074.36335,-0.02756
2075.32772,-0.02751
2076.29209,-0.02742
2077.25646,-0.02739
2078.22083,-0.02740
2079.18521,-0.02739
2080.14958,-0.02737
2081.11395,-0.02736
2082.07832,-0.02734
2083.04269,-0.02729
2084.00706,-0.02728
2084.97144,-0.02733
2085.93581,-0.02735
2086.90018,-0.02729
2087.86455,-0.02722
2088.82892,-0.02726
2089.79329,-0.02732
2090.75767,-0.02731
2091.72204,-0.02723
2092.68641,-0.02715
2093.65078,-0.02710
2094.61515,-0.02709
2095.57952,-0.02715
2096.54389,-0.02728
2097.50827,-0.02736
2098.47264,-0.02734
2099.43701,-0.02732
2100.40138,-0.02738
2101.36575,-0.02745
2102.33012,-0.02741
2103.29450,-0.02730
2104.25887,-0.02724
2105.22324,-0.02723
2106.18761,-0.02727
2107.15198,-0.02736
2108.11635,-0.02748
2109.08073,-0.02755
2110.04510,-0.02752
2111.00947,-0.02750
2111.97384,-0.02752
2112.93821,-0.02752
2113.90258,-0.02741
2114.86696,-0.02730
2115.83133,-0.02730
2116.79570,-0.02737
2117.76007,-0.02744
2118.72444,-0.02749
2119.68881,-0.02755
2120.65319,-0.02760
2121.61756,-0.02765
2122.58193,-0.02777
2123.54630,-0.02794
2124.51067,-0.02805
2125.47504,-0.02799
2126.43941,-0.02788
2127.40379,-0.02786
2128.36816,-0.02792
2129.33253,-0.02797
2130.29690,-0.02801
2131.26127,-0.02808
2132.22564,-0.02813
2133.19002,-0.02816
2134.15439,-0.02822
2135.11876,-0.02828
2136.08313,-0.02827
2137.04750,-0.02814
2138.01187,-0.02805
2138.97625,-0.02813
2139.94062,-0.02830
2140.90499,-0.02841
2141.86936,-0.02845
2142.83373,-0.02851
2143.79810,-0.02860
2144.76248,-0.02869
2145.72685,-0.02881
2146.69122,-0.02893
2147.65559,-0.02895
2148.61996,-0.02887
2149.58433,-0.02881
2150.54871,-0.02887
2151.51308,-0.02894
2152.47745,-0.02893
2153.44182,-0.02887
2154.40619,-0.02890
2155.37056,-0.02902
2156.33494,-0.02916
2157.29931,-0.02933
2158.26368,-0.02951
2159.22805,-0.02964
2160.19242,-0.02973
2161.15679,-0.02986
2162.12116,-0.03005
2163.08554,-0.03017
2164.04991,-0.03012
2165.01428,-0.03001
2165.97865,-0.02999
2166.94302,-0.03007
2167.90739,-0.03012
2168.87177,-0.03012
2169.83614,-0.03008
2170.80051,-0.03002
2171.76488,-0.02997
2172.72925,-0.03005
2173.69362,-0.03028
2174.65800,-0.03050
2175.62237,-0.03058
2176.58674,-0.03061
2177.55111,-0.03070
2178.51548,-0.03082
2179.47985,-0.03088
2180.44423,-0.03088
2181.40860,-0.03089
2182.37297,-0.03092
2183.33734,-0.03098
2184.30171,-0.03116
2185.26608,-0.03143
2186.23046,-0.03164
2187.19483,-0.03169
2188.15920,-0.03167
2189.12357,-0.03170
2190.08794,-0.03172
2191.05231,-0.03167
2192.01668,-0.03159
2192.98106,-0.03158
2193.94543,-0.03165
2194.90980,-0.03175
2195.87417,-0.03192
2196.83854,-0.03212
2197.80291,-0.03225
2198.76729,-0.03226
2199.73166,-0.03225
2200.69603,-0.03232
2201.66040,-0.03241
2202.62477,-0.03244
2203.58914,-0.03247
2204.55352,-0.03263
2205.51789,-0.03285
2206.48226,-0.03303
2207.44663,-0.03314
2208.41100,-0.03321
2209.37537,-0.03321
2210.33975,-0.03318
2211.30412,-0.03325
2212.26849,-0.03344
2213.23286,-0.03362
2214.19723,-0.03365
2215.16160,-0.03363
2216.12598,-0.03368
2217.09035,-0.03379
2218.05472,-0.03386
2219.01909,-0.03389
2219.98346,-0.03393
2220.94783,-0.03398
2221.91221,-0.03403
2222.87658,-0.03416
2223.84095,-0.03435
2224.80532,-0.03447
2225.76969,-0.03446
2226.73406,-0.03446
2227.69843,-0.03464
2228.66281,-0.03493
2229.62718,-0.03518
2230.59155,-0.03534
2231.55592,-0.03547
2232.52029,-0.03558
2233.48466,-0.03568
2234.44904,-0.03585
2235.41341,-0.03607
2236.37778,-0.03620
2237.34215,-0.03617
2238.30652,-0.03611
2239.27089,-0.03617
2240.23527,-0.03629
2241.19964,-0.03636
2242.16401,-0.03641
2243.12838,-0.03653
2244.09275,-0.03674
2245.05712,-0.03695
2246.02150,-0.03717
2246.98587,-0.03735
2247.95024,-0.03738
2248.91461,-0.03728
2249.87898,-0.03722
2250.84335,-0.03734
2251.80773,-0.03751
2252.77210,-0.03759
2253.73647,-0.03759
2254.70084,-0.03766
2255.66521,-0.03780
2256.62958,-0.03795
2257.59395,-0.03811
2258.55833,-0.03825
2259.52270,-0.03832
2260.48707,-0.03833
2261.45144,-0.03843
2262.41581,-0.03866
2263.38018,-0.03886
2264.34456,-0.03891
2265.30893,-0.03891
2266.27330,-0.03902
2267.23767,-0.03921
2268.20204,-0.03936
2269.16641,-0.03944
2270.13079,-0.03952
2271.09516,-0.03961
2272.05953,-0.03972
2273.02390,-0.03995
2273.98827,-0.04026
2274.95264,-0.04041
2275.91702,-0.04033
2276.88139,-0.04022
2277.84576,-0.04033
2278.81013,-0.04062
2279.77450,-0.04082
2280.73887,-0.04087
2281.70325,-0.04091
2282.66762,-0.04100
2283.63199,-0.04109
2284.59636,-0.04117
2285.56073,-0.04128
2286.52510,-0.04139
2287.48947,-0.04146
2288.45385,-0.04153
2289.41822,-0.04165
2290.38259,-0.04176
2291.34696,-0.04183
2292.31133,-0.04190
2293.27570,-0.04202
2294.24008,-0.04213
2295.20445,-0.04220
2296.16882,-0.04227
2297.13319,-0.04239
2298.09756,-0.04251
2299.06193,-0.04257
2300.02631,-0.04264
2300.99068,-0.04276
2301.95505,-0.04288
2302.91942,-0.04294
2303.88379,-0.04301
2304.84816,-0.04313
2305.81254,-0.04325
2306.77691,-0.04331
2307.74128,-0.04337
2308.70565,-0.04350
2309.67002,-0.04362
2310.63439,-0.04368
2311.59877,-0.04374
2312.56314,-0.04387
2313.52751,-0.04399
2314.49188,-0.04405
2315.45625,-0.04411
2316.42062,-0.04424
2317.38500,-0.04436
2318.34937,-0.04442
2319.31374,-0.04448
2320.27811,-0.04461
2321.24248,-0.04473
2322.20685,-0.04479
2323.17122,-0.04485
2324.13560,-0.04498
2325.09997,-0.04510
2326.06434,-0.04516
2327.02871,-0.04522
2327.99308,-0.04535
2328.95745,-0.04547
2329.92183,-0.04553
2330.88620,-0.04559
2331.85057,-0.04572
2332.81494,-0.04584
2333.77931,-0.04590
2334.74368,-0.04596
2335.70806,-0.04609
2336.67243,-0.04621
2337.63680,-0.04627
2338.60117,-0.04633
2339.56554,-0.04646
2340.52991,-0.04658
2341.49429,-0.04664
2342.45866,-0.04670
2343.42303,-0.04683
2344.38740,-0.04695
2345.35177,-0.04701
2346.31614,-0.04707
2347.28052,-0.04720
2348.24489,-0.04732
2349.20926,-0.04738
2350.17363,-0.04744
2351.13800,-0.04757
2352.10237,-0.04769
2353.06674,-0.04775
2354.03112,-0.04781
2354.99549,-0.04794
2355.95986,-0.04806
2356.92423,-0.04812
2357.88860,-0.04818
2358.85297,-0.04830
2359.81735,-0.04843
2360.78172,-0.04849
2361.74609,-0.04855
2362.71046,-0.04867
2363.67483,-0.04880
2364.63920,-0.04886
2365.60358,-0.04892
2366.56795,-0.04904
2367.53232,-0.04917
2368.49669,-0.04923
2369.46106,-0.04929
2370.42543,-0.04941
2371.38981,-0.04954
2372.35418,-0.04960
2373.31855,-0.04966
2374.28292,-0.04978
2375.24729,-0.04991
2376.21166,-0.04997
2377.17604,-0.05003
2378.14041,-0.05015
2379.10478,-0.05028
2380.06915,-0.05034
2381.03352,-0.05040
2381.99789,-0.05052
2382.96227,-0.05065
2383.92664,-0.05071
2384.89101,-0.05077
2385.85538,-0.05089
2386.81975,-0.05102
2387.78412,-0.05108
2388.74849,-0.05114
2389.71287,-0.05126
2390.67724,-0.05139
2391.64161,-0.05145
2392.60598,-0.05151
2393.57035,-0.05163
2394.53472,-0.05176
2395.49910,-0.05182
2396.46347,-0.05188
2397.42784,-0.05200
2398.39221,-0.05213
2399.35658,-0.05219
2400.32095,-0.05225
2401.28533,-0.05237
2402.24970,-0.05250
2403.21407,-0.05256
2404.17844,-0.05262
2405.14281,-0.05274
2406.10718,-0.05287
2407.07156,-0.05293
2408.03593,-0.05299
2409.00030,-0.05311
2409.96467,-0.05324
2410.92904,-0.05330
2411.89341,-0.05336
2412.85779,-0.05348
2413.82216,-0.05361
2414.78653,-0.05367
2415.75090,-0.05373
2416.71527,-0.05385
2417.67964,-0.05398
2418.64401,-0.05404
2419.60839,-0.05410
2420.57276,-0.05422
2421.53713,-0.05435
2422.50150,-0.05441
2423.46587,-0.05447
2424.43024,-0.05459
2425.39462,-0.05472
2426.35899,-0.05478
2427.32336,-0.05484
2428.28773,-0.05496
2429.25210,-0.05508
2430.21647,-0.05515
2431.18085,-0.05522
2432.14522,-0.05533
2433.10959,-0.05545
2434.07396,-0.05552
2435.03833,-0.05556
2436.00270,-0.05553
2436.96708,-0.05534
2437.93145,-0.05508
2438.89582,-0.05504
2439.86019,-0.05530
2440.82456,-0.05559
2441.78893,-0.05565
2442.75331,-0.05556
2443.71768,-0.05554
2444.68205,-0.05567
2445.64642,-0.05582
2446.61079,-0.05592
2447.57516,-0.05594
2448.53953,-0.05587
2449.50391,-0.05582
2450.46828,-0.05594
2451.43265,-0.05621
2452.39702,-0.05639
2453.36139,-0.05632
2454.32576,-0.05622
2455.29014,-0.05635
2456.25451,-0.05666
2457.21888,-0.05690
2458.18325,-0.05692
2459.14762,-0.05677
2460.11199,-0.05656
2461.07637,-0.05643
2462.04074,-0.05653
2463.00511,-0.05676
2463.96948,-0.05688
2464.93385,-0.05678
2465.89822,-0.05669
2466.86260,-0.05682
2467.82697,-0.05706
2468.79134,-0.05711
2469.75571,-0.05694
2470.72008,-0.05669
2471.68445,-0.05650
2472.64883,-0.05645
2473.61320,-0.05656
2474.57757,-0.05671
2475.54194,-0.05673
2476.50631,-0.05661
2477.47068,-0.05660
2478.43506,-0.05682
2479.39943,-0.05706
2480.36380,-0.05706
2481.32817,-0.05690
2482.29254,-0.05679
2483.25691,-0.05684
2484.22128,-0.05695
2485.18566,-0.05702
2486.15003,-0.05696
2487.11440,-0.05675
2488.07877,-0.05653
2489.04314,-0.05655
2490.00751,-0.05682
2490.97189,-0.05701
2491.93626,-0.05690
2492.90063,-0.05659
2493.86500,-0.05640
2494.82937,-0.05638
2495.79374,-0.05639
2496.75812,-0.05634
2497.72249,-0.05623
2498.68686,-0.05608
2499.65123,-0.05602
2500.61560,-0.05618
2501.57997,-0.05652
2502.54435,-0.05677
2503.50872,-0.05680
2504.47309,-0.05679
2505.43746,-0.05695
2506.40183,-0.05723
2507.36620,-0.05738
2508.33058,-0.05733
2509.29495,-0.05717
2510.25932,-0.05699
2511.22369,-0.05686
2512.18806,-0.05684
2513.15243,-0.05685
2514.11680,-0.05671
2515.08118,-0.05639
2516.04555,-0.05615
2517.00992,-0.05622
2517.97429,-0.05642
2518.93866,-0.05649
2519.90303,-0.05638
2520.86741,-0.05625
2521.83178,-0.05618
2522.79615,-0.05616
2523.76052,-0.05617
2524.72489,-0.05613
2525.68926,-0.05592
2526.65364,-0.05561
2527.61801,-0.05549
2528.58238,-0.05565
2529.54675,-0.05588
2530.51112,-0.05588
2531.47549,-0.05573
2532.43987,-0.05564
2533.40424,-0.05567
2534.36861,-0.05573
2535.33298,-0.05574
2536.29735,-0.05570
2537.26172,-0.05561
2538.22610,-0.05560
2539.19047,-0.05583
2540.15484,-0.05624
2541.11921,-0.05649
2542.08358,-0.05631
2543.04795,-0.05589
2544.01233,-0.05557
2544.97670,-0.05546
2545.94107,-0.05544
2546.90544,-0.05545
2547.86981,-0.05547
2548.83418,-0.05550
2549.79855,-0.05558
2550.76293,-0.05575
2551.72730,-0.05594
2552.69167,-0.05587
2553.65604,-0.05549
2554.62041,-0.05513
2555.58478,-0.05508
2556.54916,-0.05527
2557.51353,-0.05544
2558.47790,-0.05546
2559.44227,-0.05543
2560.40664,-0.05541
2561.37101,-0.05545
2562.33539,-0.05556
2563.29976,-0.05568
2564.26413,-0.05564
2565.22850,-0.05546
2566.19287,-0.05540
2567.15724,-0.05557
2568.12162,-0.05576
2569.08599,-0.05568
2570.05036,-0.05540
2571.01473,-0.05514
2571.97910,-0.05504
2572.94347,-0.05502
2573.90785,-0.05500
2574.87222,-0.05490
2575.83659,-0.05462
2576.80096,-0.05430
2577.76533,-0.05421
2578.72970,-0.05443
2579.69407,-0.05469
2580.65845,-0.05472
2581.62282,-0.05462
2582.58719,-0.05463
2583.55156,-0.05476
2584.51593,-0.05481
2585.48030,-0.05464
2586.44468,-0.05424
2587.40905,-0.05368
2588.37342,-0.05319
2589.33779,-0.05303
2590.30216,-0.05320
2591.26653,-0.05337
2592.23091,-0.05331
2593.19528,-0.05317
2594.15965,-0.05316
2595.12402,-0.05321
2596.08839,-0.05311
2597.05276,-0.05281
2598.01714,-0.05248
2598.98151,-0.05226
2599.94588,-0.05225
2600.91025,-0.05243
2601.87462,-0.05264
2602.83899,-0.05258
2603.80337,-0.05224
2604.76774,-0.05195
2605.73211,-0.05201
2606.69648,-0.05226
2607.66085,-0.05236
2608.62522,-0.05222
2609.58959,-0.05193
2610.55397,-0.05160
2611.51834,-0.05129
2612.48271,-0.05108
2613.44708,-0.05094
2614.41145,-0.05077
2615.37582,-0.05061
2616.34020,-0.05068
2617.30457,-0.05103
2618.26894,-0.05131
2619.23331,-0.05121
2620.19768,-0.05081
2621.16205,-0.05042
2622.12643,-0.05024
2623.09080,-0.05022
2624.05517,-0.05026
2625.01954,-0.05025
2625.98391,-0.05008
2626.94828,-0.04981
2627.91266,-0.04968
2628.87703,-0.04972
2629.84140,-0.04968
2630.80577,-0.04935
2631.77014,-0.04896
2632.73451,-0.04883
2633.69889,-0.04899
2634.66326,-0.04921
2635.62763,-0.04931
2636.59200,-0.04925
2637.55637,-0.04909
2638.52074,-0.04894
2639.48512,-0.04898
2640.44949,-0.04911
2641.41386,-0.04904
2642.37823,-0.04867
2643.34260,-0.04829
2644.30697,-0.04821
2645.27134,-0.04831
2646.23572,-0.04825
2647.20009,-0.04792
2648.16446,-0.04747
2649.12883,-0.04709
2650.09320,-0.04690
2651.05757,-0.04694
2652.02195,-0.04704
2652.98632,-0.04690
2653.95069,-0.04650
2654.91506,-0.04616
2655.87943,-0.04610
2656.84380,-0.04616
2657.80818,-0.04604
2658.77255,-0.04575
2659.73692,-0.04553
2660.70129,-0.04543
2661.66566,-0.04539
2662.63003,-0.04530
2663.59441,-0.04506
2664.55878,-0.04462
2665.52315,-0.04419
2666.48752,-0.04411
2667.45189,-0.04443
2668.41626,-0.04478
2669.38064,-0.04475
2670.34501,-0.04436
2671.30938,-0.04394
2672.27375,-0.04369
2673.23812,-0.04361
2674.20249,-0.04365
2675.16686,-0.04375
2676.13124,-0.04377
2677.09561,-0.04370
2678.05998,-0.04367
2679.02435,-0.04366
2679.98872,-0.04344
2680.95309,-0.04293
2681.91747,-0.04247
2682.88184,-0.04242
2683.84621,-0.04269
2684.81058,-0.04295
2685.77495,-0.04297
2686.73932,-0.04280
2687.70370,-0.04255
2688.66807,-0.04239
2689.63244,-0.04241
2690.59681,-0.04246
2691.56118,-0.04221
2692.52555,-0.04164
2693.48993,-0.04113
2694.45430,-0.04102
2695.41867,-0.04120
2696.38304,-0.04129
2697.34741,-0.04118
2698.31178,-0.04096
2699.27616,-0.04078
2700.24053,-0.04065
2701.20490,-0.04059
2702.16927,-0.04043
2703.13364,-0.03998
2704.09801,-0.03931
2705.06239,-0.03881
2706.02676,-0.03871
2706.99113,-0.03878
2707.95550,-0.03868
2708.91987,-0.03837
2709.88424,-0.03804
2710.84861,-0.03782
2711.81299,-0.03766
2712.77736,-0.03750
2713.74173,-0.03728
2714.70610,-0.03690
2715.67047,-0.03648
2716.63484,-0.03625
2717.59922,-0.03624
2718.56359,-0.03610
2719.52796,-0.03557
2720.49233,-0.03487
2721.45670,-0.03436
2722.42107,-0.03411
2723.38545,-0.03390
2724.34982,-0.03356
2725.31419,-0.03304
2726.27856,-0.03241
2727.24293,-0.03187
2728.20730,-0.03166
2729.17168,-0.03172
2730.13605,-0.03162
2731.10042,-0.03109
2732.06479,-0.03037
2733.02916,-0.02982
2733.99353,-0.02952
2734.95791,-0.02929
2735.92228,-0.02902
2736.88665,-0.02875
2737.85102,-0.02851
2738.81539,-0.02833
2739.77976,-0.02826
2740.74413,-0.02818
2741.70851,-0.02783
2742.67288,-0.02718
2743.63725,-0.02660
2744.60162,-0.02638
2745.56599,-0.02638
2746.53036,-0.02624
2747.49474,-0.02590
2748.45911,-0.02549
2749.42348,-0.02511
2750.38785,-0.02476
2751.35222,-0.02450
2752.31659,-0.02427
2753.28097,-0.02396
2754.24534,-0.02360
2755.20971,-0.02342
2756.17408,-0.02349
2757.13845,-0.02353
2758.10282,-0.02323
2759.06720,-0.02268
2760.03157,-0.02217
2760.99594,-0.02177
2761.96031,-0.02142
2762.92468,-0.02108
2763.88905,-0.02077
2764.85343,-0.02047
2765.81780,-0.02023
2766.78217,-0.02024
2767.74654,-0.02043
2768.71091,-0.02044
2769.67528,-0.02000
2770.63965,-0.01930
2771.60403,-0.01868
2772.56840,-0.01824
2773.53277,-0.01786
2774.49714,-0.01753
2775.46151,-0.01729
2776.42588,-0.01714
2777.39026,-0.01710
2778.35463,-0.01722
2779.31900,-0.01743
2780.28337,-0.01743
2781.24774,-0.01708
2782.21211,-0.01666
2783.17649,-0.01640
2784.14086,-0.01618
2785.10523,-0.01572
2786.06960,-0.01499
2787.03397,-0.01418
2787.99834,-0.01346
2788.96272,-0.01292
2789.92709,-0.01265
2790.89146,-0.01254
2791.85583,-0.01233
2792.82020,-0.01198
2793.78457,-0.01177
2794.74895,-0.01187
2795.71332,-0.01202
2796.67769,-0.01180
2797.64206,-0.01120
2798.60643,-0.01048
2799.57080,-0.00986
2800.53518,-0.00940
2801.49955,-0.00911
2802.46392,-0.00884
2803.42829,-0.00841
2804.39266,-0.00782
2805.35703,-0.00740
2806.32140,-0.00728
2807.28578,-0.00718
2808.25015,-0.00681
2809.21452,-0.00626
2810.17889,-0.00583
2811.14326,-0.00558
2812.10763,-0.00535
2813.07201,-0.00508
2814.03638,-0.00471
2815.00075,-0.00419
2815.96512,-0.00363
2816.92949,-0.00326
2817.89386,-0.00313
2818.85824,-0.00293
2819.82261,-0.00243
2820.78698,-0.00177
2821.75135,-0.00124
2822.71572,-0.00081
2823.68009,-0.00030
2824.64447,0.00033
2825.60884,0.00098
2826.57321,0.00158
2827.53758,0.00211
2828.50195,0.00248
2829.46632,0.00281
2830.43070,0.00342
2831.39507,0.00440
2832.35944,0.00543
2833.32381,0.00620
2834.28818,0.00686
2835.25255,0.00774
2836.21692,0.00890
2837.18130,0.01019
2838.14567,0.01153
2839.11004,0.01290
2840.07441,0.01432
2841.03878,0.01594
2842.00315,0.01802
2842.96753,0.02060
2843.93190,0.02339
2844.89627,0.02620
2845.86064,0.02924
2846.82501,0.03278
2847.78938,0.03670
2848.75376,0.04066
2849.71813,0.04452
2850.68250,0.04824
2851.64687,0.05168
2852.61124,0.05464
2853.57561,0.05693
2854.53999,0.05829
2855.50436,0.05845
2856.46873,0.05753
2857.43310,0.05612
2858.39747,0.05475
2859.36184,0.05352
2860.32622,0.05230
2861.29059,0.05119
2862.25496,0.05042
2863.21933,0.05005
2864.18370,0.05000
2865.14807,0.05031
2866.11245,0.05095
2867.07682,0.05185
2868.04119,0.05303
2869.00556,0.05467
2869.96993,0.05677
2870.93430,0.05888
2871.89867,0.06059
2872.86305,0.06188
2873.82742,0.06288
2874.79179,0.06347
2875.75616,0.06342
2876.72053,0.06270
2877.68490,0.06149
2878.64928,0.06005
2879.61365,0.05879
2880.57802,0.05810
2881.54239,0.05800
2882.50676,0.05804
2883.47113,0.05781
2884.43551,0.05741
2885.39988,0.05716
2886.36425,0.05710
2887.32862,0.05710
2888.29299,0.05721
2889.25736,0.05759
2890.22174,0.05835
2891.18611,0.05955
2892.15048,0.06121
2893.11485,0.06311
2894.07922,0.06480
2895.04359,0.06607
2896.00797,0.06723
2896.97234,0.06863
2897.93671,0.07022
2898.90108,0.07174
2899.86545,0.07317
2900.82982,0.07468
2901.79419,0.07631
2902.75857,0.07809
2903.72294,0.08006
2904.68731,0.08214
2905.65168,0.08418
2906.61605,0.08627
2907.58042,0.08887
2908.54480,0.09224
2909.50917,0.09617
2910.47354,0.10023
2911.43791,0.10434
2912.40228,0.10865
2913.36665,0.11321
2914.33103,0.11795
2915.29540,0.12289
2916.25977,0.12799
2917.22414,0.13309
2918.18851,0.13815
2919.15288,0.14330
2920.11726,0.14843
2921.08163,0.15299
2922.04600,0.15651
2923.01037,0.15899
2923.97474,0.16078
2924.93911,0.16209
2925.90349,0.16296
2926.86786,0.16355
2927.83223,0.16394
2928.79660,0.16407
2929.76097,0.16388
2930.72534,0.16341
2931.68971,0.16257
2932.65409,0.16105
2933.61846,0.15880
2934.58283,0.15626
2935.54720,0.15384
2936.51157,0.15149
2937.47594,0.14886
2938.44032,0.14582
2939.40469,0.14252
2940.36906,0.13913
2941.33343,0.13592
2942.29780,0.13323
2943.26217,0.13120
2944.22655,0.12966
2945.19092,0.12855
2946.15529,0.12804
2947.11966,0.12818
2948.08403,0.12861
2949.04840,0.12898
2950.01278,0.12941
2950.97715,0.13026
2951.94152,0.13171
2952.90589,0.13367
2953.87026,0.13600
2954.83463,0.13838
2955.79901,0.14040
2956.76338,0.14192
2957.72775,0.14316
2958.69212,0.14425
2959.65649,0.14492
2960.62086,0.14485
2961.58524,0.14418
2962.54961,0.14323
2963.51398,0.14210
2964.47835,0.14069
2965.44272,0.13899
2966.40709,0.13706
2967.37146,0.13491
2968.33584,0.13268
2969.30021,0.13061
2970.26458,0.12865
2971.22895,0.12635
2972.19332,0.12343
2973.15769,0.12021
2974.12207,0.11723
2975.08644,0.11467
2976.05081,0.11236
2977.01518,0.11013
2977.97955,0.10779
2978.94392,0.10518
2979.90830,0.10237
2980.87267,0.09975
2981.83704,0.09755
2982.80141,0.09562
2983.76578,0.09376
2984.73015,0.09206
2985.69453,0.09062
2986.65890,0.08923
2987.62327,0.08758
2988.58764,0.08570
2989.55201,0.08382
2990.51638,0.08210
2991.48076,0.08062
2992.44513,0.07944
2993.40950,0.07845
2994.37387,0.07732
2995.33824,0.07600
2996.30261,0.07493
2997.26698,0.07446
2998.23136,0.07443
2999.19573,0.07447
3000.16010,0.07450
3001.12447,0.07464
3002.08884,0.07489
3003.05321,0.07515
3004.01759,0.07545
3004.98196,0.07576
3005.94633,0.07596
3006.91070,0.07606
3007.87507,0.07635
3008.83944,0.07689
3009.80382,0.07739
3010.76819,0.07756
3011.73256,0.07757
3012.69693,0.07769
3013.66130,0.07793
3014.62567,0.07811
3015.59005,0.07823
3016.55442,0.07835
3017.51879,0.07845
3018.48316,0.07856
3019.44753,0.07891
3020.41190,0.07953
3021.37628,0.08021
3022.34065,0.08084
3023.30502,0.08174
3024.26939,0.08317
3025.23376,0.08487
3026.19813,0.08635
3027.16251,0.08740
3028.12688,0.08809
3029.09125,0.08856
3030.05562,0.08911
3031.01999,0.09006
3031.98436,0.09143
3032.94873,0.09279
3033.91311,0.09378
3034.87748,0.09449
3035.84185,0.09516
3036.80622,0.09576
3037.77059,0.09618
3038.73496,0.09655
3039.69934,0.09706
3040.66371,0.09771
3041.62808,0.09846
3042.59245,0.09944
3043.55682,0.10064
3044.52119,0.10181
3045.48557,0.10283
3046.44994,0.10392
3047.41431,0.10521
3048.37868,0.10643
3049.34305,0.10723
3050.30742,0.10765
3051.27180,0.10803
3052.23617,0.10861
3053.20054,0.10949
3054.16491,0.11076
3055.12928,0.11222
3056.09365,0.11339
3057.05803,0.11401
3058.02240,0.11434
3058.98677,0.11473
3059.95114,0.11523
3060.91551,0.11572
3061.87988,0.11628
3062.84425,0.11702
3063.80863,0.11781
3064.77300,0.11852
3065.73737,0.11921
3066.70174,0.11999
3067.66611,0.12069
3068.63048,0.12119
3069.59486,0.12160
3070.55923,0.12196
3071.52360,0.12201
3072.48797,0.12159
3073.45234,0.12103
3074.41671,0.12075
3075.38109,0.12081
3076.34546,0.12106
3077.30983,0.12151
3078.27420,0.12216
3079.23857,0.12280
3080.20294,0.12327
3081.16732,0.12360
3082.13169,0.12377
3083.09606,0.12361
3084.06043,0.12312
3085.02480,0.12272
3085.98917,0.12273
3086.95355,0.12297
3087.91792,0.12306
3088.88229,0.12290
3089.84666,0.12258
3090.81103,0.12206
3091.77540,0.12136
3092.73977,0.12069
3093.70415,0.12019
3094.66852,0.11981
3095.63289,0.11957
3096.59726,0.11967
3097.56163,0.12013
3098.52600,0.12052
3099.49038,0.12047
3100.45475,0.12021
3101.41912,0.12014
3102.38349,0.12039
3103.34786,0.12084
3104.31223,0.12148
3105.27661,0.12225
3106.24098,0.12296
3107.20535,0.12353
3108.16972,0.12407
3109.13409,0.12457
3110.09846,0.12476
3111.06284,0.12452
3112.02721,0.12427
3112.99158,0.12452
3113.95595,0.12525
3114.92032,0.12619
3115.88469,0.12717
3116.84907,0.12817
3117.81344,0.12904
3118.77781,0.12974
3119.74218,0.13031
3120.70655,0.13065
3121.67092,0.13046
3122.63530,0.12977
3123.59967,0.12924
3124.56404,0.12954
3125.52841,0.13067
3126.49278,0.13217
3127.45715,0.13371
3128.42152,0.13513
3129.38590,0.13629
3130.35027,0.13718
3131.31464,0.13797
3132.27901,0.13873
3133.24338,0.13923
3134.20775,0.13949
3135.17213,0.13993
3136.13650,0.14093
3137.10087,0.14233
3138.06524,0.14375
3139.02961,0.14508
3139.99398,0.14638
3140.95836,0.14760
3141.92273,0.14871
3142.88710,0.14993
3143.85147,0.15145
3144.81584,0.15316
3145.78021,0.15495
3146.74459,0.15685
3147.70896,0.15878
3148.67333,0.16040
3149.63770,0.16154
3150.60207,0.16258
3151.56644,0.16394
3152.53082,0.16557
3153.49519,0.16716
3154.45956,0.16862
3155.42393,0.17002
3156.38830,0.17134
3157.35267,0.17263
3158.31704,0.17417
3159.28142,0.17602
3160.24579,0.17787
3161.21016,0.17942
3162.17453,0.18078
3163.13890,0.18212
3164.10327,0.18334
3165.06765,0.18433
3166.03202,0.18541
3166.99639,0.18692
3167.96076,0.18885
3168.92513,0.19100
3169.88950,0.19327
3170.85388,0.19552
3171.81825,0.19748
3172.78262,0.19908
3173.74699,0.20064
3174.71136,0.20229
3175.67573,0.20373
3176.64011,0.20467
3177.60448,0.20535
3178.56885,0.20617
3179.53322,0.20724
3180.49759,0.20841
3181.46196,0.20964
3182.42634,0.21095
3183.39071,0.21231
3184.35508,0.21383
3185.31945,0.21587
3186.28382,0.21850
3187.24819,0.22117
3188.21257,0.22334
3189.17694,0.22497
3190.14131,0.22630
3191.10568,0.22740
3192.07005,0.22826
3193.03442,0.22904
3193.99879,0.22988
3194.96317,0.23066
3195.92754,0.23140
3196.89191,0.23239
3197.85628,0.23380
3198.82065,0.23532
3199.78502,0.23659
3200.74940,0.23764
3201.71377,0.23860
3202.67814,0.23938
3203.64251,0.23984
3204.60688,0.24019
3205.57125,0.24067
3206.53563,0.24128
3207.50000,0.24201
3208.46437,0.24307
3209.42874,0.24454
3210.39311,0.24603
3211.35748,0.24717
3212.32186,0.24804
3213.28623,0.24885
3214.25060,0.24965
3215.21497,0.25050
3216.17934,0.25168
3217.14371,0.25339
3218.10809,0.25535
3219.07246,0.25718
3220.03683,0.25883
3221.00120,0.26029
3221.96557,0.26142
3222.92994,0.26224
3223.89431,0.26308
3224.85869,0.26414
3225.82306,0.26515
3226.78743,0.26584
3227.75180,0.26643
3228.71617,0.26734
3229.68054,0.26872
3230.64492,0.27052
3231.60929,0.27270
3232.57366,0.27503
3233.53803,0.27705
3234.50240,0.27849
3235.46677,0.27964
3236.43115,0.28080
3237.39552,0.28183
3238.35989,0.28260
3239.32426,0.28340
3240.28863,0.28469
3241.25300,0.28658
3242.21738,0.28898
3243.18175,0.29187
3244.14612,0.29509
3245.11049,0.29825
3246.07486,0.30106
3247.03923,0.30366
3248.00361,0.30619
3248.96798,0.30849
3249.93235,0.31052
3250.89672,0.31272
3251.86109,0.31550
3252.82546,0.31880
3253.78983,0.32231
3254.75421,0.32594
3255.71858,0.32967
3256.68295,0.33328
3257.64732,0.33668
3258.61169,0.34009
3259.57606,0.34363
3260.54044,0.34706
3261.50481,0.35021
3262.46918,0.35337
3263.43355,0.35693
3264.39792,0.36080
3265.36229,0.36470
3266.32667,0.36858
3267.29104,0.37248
3268.25541,0.37624
3269.21978,0.37977
3270.18415,0.38322
3271.14852,0.38668
3272.11290,0.39002
3273.07727,0.39333
3274.04164,0.39702
3275.00601,0.40120
3275.97038,0.40521
3276.93475,0.40831
3277.89913,0.41051
3278.86350,0.41241
3279.82787,0.41451
3280.79224,0.41701
3281.75661,0.42002
3282.72098,0.42335
3283.68536,0.42652
3284.64973,0.42922
3285.61410,0.43158
3286.57847,0.43361
3287.54284,0.43501
3288.50721,0.43567
3289.47158,0.43608
3290.43596,0.43686
3291.40033,0.43802
3292.36470,0.43920
3293.32907,0.44011
3294.29344,0.44056
3295.25781,0.44032
3296.22219,0.43946
3297.18656,0.43853
3298.15093,0.43796
3299.11530,0.43767
3300.07967,0.43744
3301.04404,0.43739
3302.00842,0.43764
3302.97279,0.43792
3303.93716,0.43789
3304.90153,0.43750
3305.86590,0.43672
3306.83027,0.43517
3307.79465,0.43257
3308.75902,0.42913
3309.72339,0.42526
3310.68776,0.42117
3311.65213,0.41720
3312.61650,0.41407
3313.58088,0.41226
3314.54525,0.41150
3315.50962,0.41111
3316.47399,0.41069
3317.43836,0.41005
3318.40273,0.40899
3319.36710,0.40756
3320.33148,0.40616
3321.29585,0.40502
3322.26022,0.40385
3323.22459,0.40234
3324.18896,0.40055
3325.15333,0.39850
3326.11771,0.39588
3327.08208,0.39248
3328.04645,0.38875
3329.01082,0.38528
3329.97519,0.38231
3330.93956,0.37981
3331.90394,0.37784
3332.86831,0.37627
3333.83268,0.37470
3334.79705,0.37300
3335.76142,0.37155
3336.72579,0.37067
3337.69017,0.37003
3338.65454,0.36911
3339.61891,0.36779
3340.58328,0.36619
3341.54765,0.36423
3342.51202,0.36180
3343.47640,0.35913
3344.44077,0.35648
3345.40514,0.35400
3346.36951,0.35197
3347.33388,0.35082
3348.29825,0.35047
3349.26263,0.35011
3350.22700,0.34898
3351.19137,0.34717
3352.15574,0.34513
3353.12011,0.34297
3354.08448,0.34065
3355.04885,0.33830
3356.01323,0.33611
3356.97760,0.33403
3357.94197,0.33207
3358.90634,0.33045
3359.87071,0.32922
3360.83508,0.32792
3361.79946,0.32622
3362.76383,0.32442
3363.72820,0.32292
3364.69257,0.32169
3365.65694,0.32039
3366.62131,0.31891
3367.58569,0.31710
3368.55006,0.31472
3369.51443,0.31181
3370.47880,0.30899
3371.44317,0.30680
3372.40754,0.30514
3373.37192,0.30370
3374.33629,0.30248
3375.30066,0.30154
3376.26503,0.30063
3377.22940,0.29954
3378.19377,0.29842
3379.15815,0.29737
3380.12252,0.29609
3381.08689,0.29437
3382.05126,0.29242
3383.01563,0.29054
3383.98000,0.28865
3384.94437,0.28666
3385.90875,0.28484
3386.87312,0.28342
3387.83749,0.28222
3388.80186,0.28106
3389.76623,0.28024
3390.73060,0.28001
3391.69498,0.28000
3392.65935,0.27958
3393.62372,0.27841
3394.58809,0.27639
3395.55246,0.27356
3396.51683,0.27044
3397.48121,0.26798
3398.44558,0.26669
3399.40995,0.26621
3400.37432,0.26596
3401.33869,0.26595
3402.30306,0.26633
3403.26744,0.26679
3404.23181,0.26681
3405.19618,0.26629
3406.16055,0.26543
3407.12492,0.26443
3408.08929,0.26361
3409.05367,0.26338
3410.01804,0.26359
3410.98241,0.26341
3411.94678,0.26220
3412.91115,0.26023
3413.87552,0.25822
3414.83989,0.25650
3415.80427,0.25507
3416.76864,0.25395
3417.73301,0.25300
3418.69738,0.25184
3419.66175,0.25036
3420.62612,0.24902
3421.59050,0.24805
3422.55487,0.24705
3423.51924,0.24559
3424.48361,0.24385
3425.44798,0.24223
3426.41235,0.24069
3427.37673,0.23892
3428.34110,0.23687
3429.30547,0.23462
3430.26984,0.23212
3431.23421,0.22965
3432.19858,0.22784
3433.16296,0.22699
3434.12733,0.22659
3435.09170,0.22595
3436.05607,0.22494
3437.02044,0.22377
3437.98481,0.22242
3438.94919,0.22090
3439.91356,0.21962
3440.87793,0.21888
3441.84230,0.21847
3442.80667,0.21800
3443.77104,0.21732
3444.73542,0.21622
3445.69979,0.21426
3446.66416,0.21140
3447.62853,0.20840
3448.59290,0.20599
3449.55727,0.20418
3450.52164,0.20267
3451.48602,0.20159
3452.45039,0.20117
3453.41476,0.20120
3454.37913,0.20133
3455.34350,0.20139
3456.30787,0.20110
3457.27225,0.19998
3458.23662,0.19795
3459.20099,0.19571
3460.16536,0.19398
3461.12973,0.19273
3462.09410,0.19152
3463.05848,0.19014
3464.02285,0.18848
3464.98722,0.18622
3465.95159,0.18332
3466.91596,0.18029
3467.88033,0.17772
3468.84471,0.17567
3469.80908,0.17408
3470.77345,0.17305
3471.73782,0.17243
3472.70219,0.17157
3473.66656,0.17008
3474.63094,0.16842
3475.59531,0.16716
3476.55968,0.16620
3477.52405,0.16514
3478.48842,0.16389
3479.45279,0.16253
3480.41716,0.16092
3481.38154,0.15905
3482.34591,0.15729
3483.31028,0.15582
3484.27465,0.15430
3485.23902,0.15250
3486.20339,0.15080
3487.16777,0.14957
3488.13214,0.14851
3489.09651,0.14716
3490.06088,0.14559
3491.02525,0.14418
3491.98962,0.14308
3492.95400,0.14233
3493.91837,0.14205
3494.88274,0.14197
3495.84711,0.14128
3496.81148,0.13951
3497.77585,0.13706
3498.74023,0.13455
3499.70460,0.13205
3500.66897,0.12940
3501.63334,0.12684
3502.59771,0.12463
3503.56208,0.12261
3504.52646,0.12062
3505.49083,0.11889
3506.45520,0.11759
3507.41957,0.11635
3508.38394,0.11483
3509.34831,0.11316
3510.31269,0.11161
3511.27706,0.11006
3512.24143,0.10846
3513.20580,0.10719
3514.17017,0.10643
3515.13454,0.10562
3516.09891,0.10426
3517.06329,0.10261
3518.02766,0.10128
3518.99203,0.10049
3519.95640,0.10013
3520.92077,0.10018
3521.88514,0.10037
3522.84952,0.09996
3523.81389,0.09855
3524.77826,0.09651
3525.74263,0.09424
3526.70700,0.09153
3527.67137,0.08815
3528.63575,0.08457
3529.60012,0.08156
3530.56449,0.07939
3531.52886,0.07806
3532.49323,0.07755
3533.45760,0.07749
3534.42198,0.07710
3535.38635,0.07600
3536.35072,0.07473
3537.31509,0.07387
3538.27946,0.07312
3539.24383,0.07183
3540.20821,0.06987
3541.17258,0.06750
3542.13695,0.06490
3543.10132,0.06234
3544.06569,0.06039
3545.03006,0.05922
3545.99443,0.05824
3546.95881,0.05683
3547.92318,0.05505
3548.88755,0.05322
3549.85192,0.05133
3550.81629,0.04946
3551.78066,0.04818
3552.74504,0.04778
3553.70941,0.04772
3554.67378,0.04730
3555.63815,0.04647
3556.60252,0.04550
3557.56689,0.04428
3558.53127,0.04268
3559.49564,0.04097
3560.46001,0.03931
3561.42438,0.03743
3562.38875,0.03516
3563.35312,0.03292
3564.31750,0.03098
3565.28187,0.02893
3566.24624,0.02644
3567.21061,0.02405
3568.17498,0.02247
3569.13935,0.02163
3570.10373,0.02093
3571.06810,0.02003
3572.03247,0.01876
3572.99684,0.01696
3573.96121,0.01488
3574.92558,0.01333
3575.88995,0.01274
3576.85433,0.01252
3577.81870,0.01183
3578.78307,0.01070
3579.74744,0.00960
3580.71181,0.00874
3581.67618,0.00813
3582.64056,0.00789
3583.60493,0.00780
3584.56930,0.00711
3585.53367,0.00531
3586.49804,0.00265
3587.46241,-0.00043
3588.42679,-0.00391
3589.39116,-0.00764
3590.35553,-0.01096
3591.31990,-0.01332
3592.28427,-0.01497
3593.24864,-0.01626
3594.21302,-0.01702
3595.17739,-0.01712
3596.14176,-0.01706
3597.10613,-0.01742
3598.07050,-0.01820
3599.03487,-0.01924
3599.99925,-0.02075
3600.96362,-0.02274
3601.92799,-0.02455
3602.89236,-0.02569
3603.85673,-0.02657
3604.82110,-0.02780
3605.78548,-0.02940
3606.74985,-0.03112
3607.71422,-0.03302
3608.67859,-0.03518
3609.64296,-0.03735
3610.60733,-0.03949
3611.57170,-0.04202
3612.53608,-0.04476
3613.50045,-0.04650
3614.46482,-0.04623
3615.42919,-0.04445
3616.39356,-0.04248
3617.35793,-0.04123
3618.32231,-0.04109
3619.28668,-0.04230
3620.25105,-0.04463
3621.21542,-0.04716
3622.17979,-0.04926
3623.14416,-0.05110
3624.10854,-0.05282
3625.07291,-0.05387
3626.03728,-0.05407
3627.00165,-0.05454
3627.96602,-0.05666
3628.93039,-0.06023
3629.89477,-0.06375
3630.85914,-0.06596
3631.82351,-0.06670
3632.78788,-0.06649
3633.75225,-0.06619
3634.71662,-0.06654
3635.68100,-0.06751
3636.64537,-0.06829
3637.60974,-0.06835
3638.57411,-0.06814
3639.53848,-0.06825
3640.50285,-0.06858
3641.46722,-0.06888
3642.43160,-0.06940
3643.39597,-0.07042
3644.36034,-0.07163
3645.32471,-0.07273
3646.28908,-0.07410
3647.25345,-0.07637
3648.21783,-0.07957
3649.18220,-0.08324
3650.14657,-0.08670
3651.11094,-0.08903
3652.07531,-0.08940
3653.03968,-0.08824
3654.00406,-0.08729
3654.96843,-0.08795
3655.93280,-0.08991
3656.89717,-0.09196
3657.86154,-0.09334
3658.82591,-0.09383
3659.79029,-0.09347
3660.75466,-0.09282
3661.71903,-0.09291
3662.68340,-0.09403
3663.64777,-0.09530
3664.61214,-0.09583
3665.57652,-0.09584
3666.54089,-0.09601
3667.50526,-0.09653
3668.46963,-0.09738
3669.43400,-0.09878
3670.39837,-0.10050
3671.36275,-0.10175
3672.32712,-0.10225
3673.29149,-0.10292
3674.25586,-0.10457
3675.22023,-0.10665
3676.18460,-0.10806
3677.14897,-0.10853
3678.11335,-0.10847
3679.07772,-0.10811
3680.04209,-0.10748
3681.00646,-0.10680
3681.97083,-0.10609
3682.93520,-0.10495
3683.89958,-0.10335
3684.86395,-0.10207
3685.82832,-0.10196
3686.79269,-0.10326
3687.75706,-0.10597
3688.72143,-0.10996
3689.68581,-0.11415
3690.65018,-0.11662
3691.61455,-0.11646
3692.57892,-0.11487
3693.54329,-0.11370
3694.50766,-0.11355
3695.47204,-0.11399
3696.43641,-0.11467
3697.40078,-0.11531
3698.36515,-0.11544
3699.32952,-0.11503
3700.29389,-0.11472
3701.25827,-0.11493
3702.22264,-0.11512
3703.18701,-0.11484
3704.15138,-0.11452
3705.11575,-0.11458
3706.08012,-0.11447
3707.04449,-0.11340
3708.00887,-0.11152
3708.97324,-0.10966
3709.93761,-0.10858
3710.90198,-0.10900
3711.86635,-0.11122
3712.83072,-0.11419
3713.79510,-0.11589
3714.75947,-0.11538
3715.72384,-0.11381
3716.68821,-0.11265
3717.65258,-0.11203
3718.61695,-0.11158
3719.58133,-0.11159
3720.54570,-0.11244
3721.51007,-0.11369
3722.47444,-0.11481
3723.43881,-0.11597
3724.40318,-0.11729
3725.36756,-0.11802
3726.33193,-0.11759
3727.29630,-0.11643
3728.26067,-0.11515
3729.22504,-0.11361
3730.18941,-0.11181
3731.15379,-0.11072
3732.11816,-0.11117
3733.08253,-0.11265
3734.04690,-0.11414
3735.01127,-0.11534
3735.97564,-0.11631
3736.94001,-0.11674
3737.90439,-0.11660
3738.86876,-0.11648
3739.83313,-0.11664
3740.79750,-0.11631
3741.76187,-0.11516
3742.72624,-0.11420
3743.69062,-0.11442
3744.65499,-0.11518
3745.61936,-0.11508
3746.58373,-0.11377
3747.54810,-0.11199
3748.51247,-0.11056
3749.47685,-0.11026
3750.44122,-0.11175
3751.40559,-0.11467
3752.36996,-0.11746
3753.33433,-0.11906
3754.29870,-0.12008
3755.26308,-0.12130
3756.22745,-0.12230
3757.19182,-0.12224
3758.15619,-0.12135
3759.12056,-0.12037
3760.08493,-0.11943
3761.04931,-0.11840
3762.01368,-0.11763
3762.97805,-0.11743
3763.94242,-0.11749
3764.90679,-0.11771
3765.87116,-0.11869
3766.83554,-0.12050
3767.79991,-0.12204
3768.76428,-0.12248
3769.72865,-0.12242
3770.69302,-0.12274
3771.65739,-0.12316
3772.62176,-0.12300
3773.58614,-0.12245
3774.55051,-0.12193
3775.51488,-0.12133
3776.47925,-0.12079
3777.44362,-0.12122
3778.40799,-0.12306
3779.37237,-0.12507
3780.33674,-0.12579
3781.30111,-0.12521
3782.26548,-0.12432
3783.22985,-0.12366
3784.19422,-0.12339
3785.15860,-0.12384
3786.12297,-0.12488
3787.08734,-0.12561
3788.05171,-0.12560
3789.01608,-0.12558
3789.98045,-0.12596
3790.94483,-0.12578
3791.90920,-0.12421
3792.87357,-0.12202
3793.83794,-0.12041
3794.80231,-0.11947
3795.76668,-0.11860
3796.73106,-0.11772
3797.69543,-0.11690
3798.65980,-0.11592
3799.62417,-0.11514
3800.58854,-0.11574
3801.55291,-0.11797
3802.51728,-0.12026
3803.48166,-0.12124
3804.44603,-0.12160
3805.41040,-0.12270
3806.37477,-0.12451
3807.33914,-0.12590
3808.30351,-0.12635
3809.26789,-0.12591
3810.23226,-0.12452
3811.19663,-0.12244
3812.16100,-0.12070
3813.12537,-0.11996
3814.08974,-0.11989
3815.05412,-0.12024
3816.01849,-0.12148
3816.98286,-0.12338
3817.94723,-0.12445
3818.91160,-0.12400
3819.87597,-0.12349
3820.84035,-0.12454
3821.80472,-0.12662
3822.76909,-0.12811
3823.73346,-0.12849
3824.69783,-0.12832
3825.66220,-0.12790
3826.62658,-0.12745
3827.59095,-0.12757
3828.55532,-0.12841
3829.51969,-0.12913
3830.48406,-0.12924
3831.44843,-0.12941
3832.41281,-0.12998
3833.37718,-0.12978
3834.34155,-0.12771
3835.30592,-0.12447
3836.27029,-0.12168
3837.23466,-0.12020
3838.19903,-0.12026
3839.16341,-0.12186
3840.12778,-0.12402
3841.09215,-0.12490
3842.05652,-0.12395
3843.02089,-0.12274
3843.98526,-0.12267
3844.94964,-0.12308
3845.91401,-0.12273
3846.87838,-0.12165
3847.84275,-0.12033
3848.80712,-0.11851
3849.77149,-0.11613
3850.73587,-0.11452
3851.70024,-0.11523
3852.66461,-0.11858
3853.62898,-0.12393
3854.59335,-0.12999
3855.55772,-0.13436
3856.52210,-0.13460
3857.48647,-0.13109
3858.45084,-0.12707
3859.41521,-0.12483
3860.37958,-0.12355
3861.34395,-0.12188
3862.30833,-0.12029
3863.27270,-0.11961
3864.23707,-0.11932
3865.20144,-0.11903
3866.16581,-0.11969
3867.13018,-0.12181
3868.09455,-0.12404
3869.05893,-0.12526
3870.02330,-0.12623
3870.98767,-0.12771
3871.95204,-0.12876
3872.91641,-0.12867
3873.88078,-0.12865
3874.84516,-0.12974
3875.80953,-0.13089
3876.77390,-0.13100
3877.73827,-0.13095
3878.70264,-0.13171
3879.66701,-0.13228
3880.63139,-0.13149
3881.59576,-0.13009
3882.56013,-0.12925
3883.52450,-0.12857
3884.48887,-0.12751
3885.45324,-0.12699
3886.41762,-0.12764
3887.38199,-0.12828
3888.34636,-0.12794
3889.31073,-0.12785
3890.27510,-0.12929
3891.23947,-0.13132
3892.20385,-0.13249
3893.16822,-0.13290
3894.13259,-0.13276
3895.09696,-0.13095
3896.06133,-0.12713
3897.02570,-0.12350
3897.99007,-0.12208
3898.95445,-0.12218
3899.91882,-0.12222
3900.88319,-0.12238
3901.84756,-0.12337
3902.81193,-0.12462
3903.77630,-0.12580
3904.74068,-0.12787
3905.70505,-0.13073
3906.66942,-0.13189
3907.63379,-0.12984
3908.59816,-0.12651
3909.56253,-0.12427
3910.52691,-0.12269
3911.49128,-0.12069
3912.45565,-0.11936
3913.42002,-0.12011
3914.38439,-0.12222
3915.34876,-0.12465
3916.31314,-0.12805
3917.27751,-0.13230
3918.24188,-0.13485
3919.20625,-0.13406
3920.17062,-0.13191
3921.13499,-0.13085
3922.09937,-0.13027
3923.06374,-0.12878
3924.02811,-0.12733
3924.99248,-0.12709
3925.95685,-0.12690
3926.92122,-0.12565
3927.88560,-0.12487
3928.84997,-0.12594
3929.81434,-0.12740
3930.77871,-0.12778
3931.74308,-0.12841
3932.70745,-0.13027
3933.67182,-0.13118
3934.63620,-0.12920
3935.60057,-0.12631
3936.56494,-0.12520
3937.52931,-0.12531
3938.49368,-0.12526
3939.45805,-0.12615
3940.42243,-0.12894
3941.38680,-0.13160
3942.35117,-0.13245
3943.31554,-0.13333
3944.27991,-0.13575
3945.24428,-0.13736
3946.20866,-0.13593
3947.17303,-0.13357
3948.13740,-0.13297
3949.10177,-0.13284
3950.06614,-0.13121
3951.03051,-0.12963
3951.99489,-0.12988
3952.95926,-0.13005
3953.92363,-0.12836
3954.88800,-0.12705
3955.85237,-0.12793
3956.81674,-0.12797
3957.78112,-0.12441
3958.74549,-0.12017
3959.70986,-0.11909
3960.67423,-0.12002
3961.63860,-0.12073
3962.60297,-0.12311
3963.56734,-0.12866
3964.53172,-0.13333
3965.49609,-0.13328
3966.46046,-0.13106
3967.42483,-0.13029
3968.38920,-0.12906
3969.35357,-0.12523
3970.31795,-0.12281
3971.28232,-0.12548
3972.24669,-0.12912
3973.21106,-0.12871
3974.17543,-0.12697
3975.13980,-0.12806
3976.10418,-0.12885
3977.06855,-0.12563
3978.03292,-0.12292
3978.99729,-0.12557
3979.96166,-0.12882
3980.92603,-0.12721
3981.89041,-0.12600
3982.85478,-0.13145
3983.81915,-0.13749
3984.78352,-0.13626
3985.74789,-0.13366
3986.71226,-0.13823
3987.67664,-0.14300
3988.64101,-0.13759
3989.60538,-0.12990
3990.56975,-0.13295
3991.53412,-0.13811
3992.49849,-0.12970
3993.46287,-0.12031
3994.42724,-0.13524
3995.39161,-0.15979
3996.35598,-0.14342
