File Version;BWSpec4.04_00
Date;2018-11-07 14:00:59
title;BWS485-1064S-05
model;BTC264P-1064S-512-SYS
c code;RSM
operator;
port1;0
baud1;3
pixel_start;0
pixel_end;511
step;1
units;3
bkcolor;16777215
show_mode;3
data_mode;0
pixel_mode;0
intigration times(ms);200000
average number;1
time_multiply;1
spectrometer_type ;69
yaxis;1
yaxis_min;-1000
yaxis_max;133763,4206
xaxis;1
xaxis_min;18
xaxis_max;500
irrands_DispWLMin;100
irrands_DispWLMax;1000
yaxis_min_6;0
yaxis_max_6;0
irradiance_unit;0
Color_Data_Flag;0
Color_StartWL;1045
Color_EndWL;1045
Color_IncWL;10
power_unit_index;3
photometric_index;0
Illuminant_index;3
observer_index;0
lab_l;0
lab_a;0
lab_b;0
radiometric_flag;0
coefs_a0;1044,03602248762
coefs_a1;0,796605095802619
coefs_a2;2,51584898174088E-05
coefs_a3;1,73301952725862E-08
coefs_b0;-1330,35470489011
coefs_b1;1,25807542211567
coefs_b2;4,89615015007835E-05
coefs_b3;-3,20656583957859E-08
coefs_r0;1
coefs_r1;0
coefs_r2;0
coefs_r3;0
coefs_j0;1
coefs_j1;0
coefs_j2;0
coefs_j3;0
enable_coefs_r;0
all_data_save;1
select_option;-1
interval_time;200000
pixel_num;512
sel_pixel_start;1
sel_pixel_end;511
sel_pixel_delta;1
dark_compensate;0
dark_compensate_value_1;0
dark_compensate_value_2;0
dark_compensate_value_3;0
monitor pixel_0;0
monitor pixel_1;0
monitor pixel_2;0
monitor pixel_3;0
monitor pixel_4;0
monitor pixel_5;0
vertical_select_flag;0
vertical_line3;44
vertical_line4;44
vertical_line3_wv;349,610890369397
vertical_line4_wv;349,610890369397
vertical_line_flag;0
vertical_line_ratio;0
laser_wavelength;1064,25
laser_powerlevel;100
overlay_js;0
Relative Intensity Correction Flag;0
Pixel;Wavelength;Wavenumber;Raman Shift;Dark;Reference;Raw data #1;Dark Subtracted #1;%TR #1;Absorbance #1;Irradiance (lumen) #1;
0;   ;   ;   ;9878,0000;65535,0000;16467,0000;6589,0000;0,0000;0,0000;0,0000;
1;   ;   ;   ;16785,0000;65535,0000;16494,0000;-291,0000;0,0000;0,0000;0,0000;
2;   ;   ;   ;14347,0000;65535,0000;14076,0000;-271,0000;0,0000;0,0000;0,0000;
3;   ;   ;   ;19970,0000;65535,0000;19850,0000;-120,0000;0,0000;0,0000;0,0000;
4;   ;   ;   ;22837,0000;65535,0000;22593,0000;-244,0000;0,0000;0,0000;0,0000;
5;   ;   ;   ;17159,0000;65535,0000;16845,0000;-314,0000;0,0000;0,0000;0,0000;
6;   ;   ;   ;11677,0000;65535,0000;11389,0000;-288,0000;0,0000;0,0000;0,0000;
7;   ;   ;   ;7766,0000;65535,0000;7537,0000;-229,0000;0,0000;0,0000;0,0000;
8;   ;   ;   ;10392,0000;65535,0000;10338,0000;-54,0000;0,0000;0,0000;0,0000;
9;   ;   ;   ;8115,0000;65535,0000;7894,0000;-221,0000;0,0000;0,0000;0,0000;
10;   ;   ;   ;12709,0000;65535,0000;12496,0000;-213,0000;0,0000;0,0000;0,0000;
11;   ;   ;   ;16855,0000;65535,0000;16705,0000;-150,0000;0,0000;0,0000;0,0000;
12;   ;   ;   ;11934,0000;65535,0000;11708,0000;-226,0000;0,0000;0,0000;0,0000;
13;   ;   ;   ;20803,0000;65535,0000;20748,0000;-55,0000;0,0000;0,0000;0,0000;
14;   ;   ;   ;13613,0000;65535,0000;13519,0000;-94,0000;0,0000;0,0000;0,0000;
15;   ;   ;   ;17313,0000;65535,0000;17404,0000;91,0000;0,0000;0,0000;0,0000;
16;   ;   ;   ;20432,0000;65535,0000;20588,0000;156,0000;0,0000;0,0000;0,0000;
17;   ;   ;   ;8355,0000;65535,0000;8699,0000;344,0000;0,0000;0,0000;0,0000;
18;1058,38;9448,37;-52,09;26601,0000;65535,0000;27142,0000;541,0000;0,0000;0,0000;0,0000;
19;1059,18;9441,26;-44,97;15677,0000;65535,0000;16639,0000;962,0000;0,0000;0,0000;0,0000;
20;1059,98;9434,16;-37,87;25001,0000;65535,0000;26291,0000;1290,0000;0,0000;0,0000;0,0000;
21;1060,78;9427,06;-30,77;6574,0000;65535,0000;8367,0000;1793,0000;0,0000;0,0000;0,0000;
22;1061,57;9419,98;-23,69;14548,0000;65535,0000;17864,0000;3316,0000;0,0000;0,0000;0,0000;
23;1062,37;9412,90;-16,62;12394,0000;65535,0000;21711,0000;9317,0000;0,0000;0,0000;0,0000;
24;1063,17;9405,84;-9,55;16776,0000;65535,0000;65535,0000;48759,0000;0,0000;0,0000;0,0000;
25;1063,97;9398,79;-2,50;25669,0000;65535,0000;65535,0000;39866,0000;0,0000;0,0000;0,0000;
26;1064,77;9391,74;4,55;8141,0000;65535,0000;65535,0000;57394,0000;0,0000;0,0000;0,0000;
27;1065,56;9384,71;11,58;20401,0000;65535,0000;56644,0000;36243,0000;0,0000;0,0000;0,0000;
28;1066,36;9377,69;18,60;16007,0000;65535,0000;23387,0000;7380,0000;0,0000;0,0000;0,0000;
29;1067,16;9370,67;25,61;18434,0000;65535,0000;24581,0000;6147,0000;0,0000;0,0000;0,0000;
30;1067,96;9363,67;32,62;1856,0000;65535,0000;11731,0000;9875,0000;0,0000;0,0000;0,0000;
31;1068,76;9356,68;39,61;27248,0000;65535,0000;53896,0000;26648,0000;0,0000;0,0000;0,0000;
32;1069,55;9349,69;46,59;11980,0000;65535,0000;65535,0000;53555,0000;0,0000;0,0000;0,0000;
33;1070,35;9342,72;53,57;17354,0000;65535,0000;65535,0000;48181,0000;0,0000;0,0000;0,0000;
34;1071,15;9335,76;60,53;19106,0000;65535,0000;65535,0000;46429,0000;0,0000;0,0000;0,0000;
35;1071,95;9328,80;67,48;11681,0000;65535,0000;65535,0000;53854,0000;0,0000;0,0000;0,0000;
36;1072,75;9321,86;74,43;20696,0000;65535,0000;65535,0000;44839,0000;0,0000;0,0000;0,0000;
37;1073,55;9314,93;81,36;12361,0000;65535,0000;65535,0000;53174,0000;0,0000;0,0000;0,0000;
38;1074,34;9308,00;88,29;20752,0000;65535,0000;65535,0000;44783,0000;0,0000;0,0000;0,0000;
39;1075,14;9301,09;95,20;15161,0000;65535,0000;65535,0000;50374,0000;0,0000;0,0000;0,0000;
40;1075,94;9294,18;102,10;13597,0000;65535,0000;65535,0000;51938,0000;0,0000;0,0000;0,0000;
41;1076,74;9287,29;109,00;12104,0000;65535,0000;65535,0000;53431,0000;0,0000;0,0000;0,0000;
42;1077,54;9280,41;115,88;15243,0000;65535,0000;65535,0000;50292,0000;0,0000;0,0000;0,0000;
43;1078,34;9273,53;122,76;14995,0000;65535,0000;65535,0000;50540,0000;0,0000;0,0000;0,0000;
44;1079,14;9266,67;129,62;14785,0000;65535,0000;65535,0000;50750,0000;0,0000;0,0000;0,0000;
45;1079,94;9259,81;136,48;15718,0000;65535,0000;65535,0000;49817,0000;0,0000;0,0000;0,0000;
46;1080,73;9252,96;143,32;14009,0000;65535,0000;65535,0000;51526,0000;0,0000;0,0000;0,0000;
47;1081,53;9246,13;150,16;14511,0000;65535,0000;65535,0000;51024,0000;0,0000;0,0000;0,0000;
48;1082,33;9239,30;156,99;21980,0000;65535,0000;65535,0000;43555,0000;0,0000;0,0000;0,0000;
49;1083,13;9232,48;163,80;7092,0000;65535,0000;59378,0000;52286,0000;0,0000;0,0000;0,0000;
50;1083,93;9225,68;170,61;16305,0000;65535,0000;65535,0000;49230,0000;0,0000;0,0000;0,0000;
51;1084,73;9218,88;177,41;9085,0000;65535,0000;57482,0000;48397,0000;0,0000;0,0000;0,0000;
52;1085,53;9212,09;184,20;11854,0000;65535,0000;58291,0000;46437,0000;0,0000;0,0000;0,0000;
53;1086,33;9205,31;190,98;15300,0000;65535,0000;59044,0000;43744,0000;0,0000;0,0000;0,0000;
54;1087,13;9198,54;197,75;17822,0000;65535,0000;59472,0000;41650,0000;0,0000;0,0000;0,0000;
55;1087,93;9191,78;204,51;18333,0000;65535,0000;57271,0000;38938,0000;0,0000;0,0000;0,0000;
56;1088,73;9185,03;211,26;10305,0000;65535,0000;47187,0000;36882,0000;0,0000;0,0000;0,0000;
57;1089,53;9178,29;218,00;20103,0000;65535,0000;54280,0000;34177,0000;0,0000;0,0000;0,0000;
58;1090,33;9171,56;224,73;16215,0000;65535,0000;48672,0000;32457,0000;0,0000;0,0000;0,0000;
59;1091,13;9164,84;231,45;10694,0000;65535,0000;41368,0000;30674,0000;0,0000;0,0000;0,0000;
60;1091,93;9158,12;238,16;15332,0000;65535,0000;44721,0000;29389,0000;0,0000;0,0000;0,0000;
61;1092,73;9151,42;244,87;16304,0000;65535,0000;44113,0000;27809,0000;0,0000;0,0000;0,0000;
62;1093,53;9144,73;251,56;14934,0000;65535,0000;41880,0000;26946,0000;0,0000;0,0000;0,0000;
63;1094,33;9138,04;258,25;20481,0000;65535,0000;45983,0000;25502,0000;0,0000;0,0000;0,0000;
64;1095,13;9131,37;264,92;7690,0000;65535,0000;32077,0000;24387,0000;0,0000;0,0000;0,0000;
65;1095,93;9124,70;271,59;9494,0000;65535,0000;32732,0000;23238,0000;0,0000;0,0000;0,0000;
66;1096,73;9118,04;278,25;10013,0000;65535,0000;32504,0000;22491,0000;0,0000;0,0000;0,0000;
67;1097,53;9111,40;284,89;22702,0000;65535,0000;43832,0000;21130,0000;0,0000;0,0000;0,0000;
68;1098,33;9104,76;291,53;17220,0000;65535,0000;37799,0000;20579,0000;0,0000;0,0000;0,0000;
69;1099,13;9098,13;298,16;12494,0000;65535,0000;32505,0000;20011,0000;0,0000;0,0000;0,0000;
70;1099,93;9091,51;304,78;16075,0000;65535,0000;35543,0000;19468,0000;0,0000;0,0000;0,0000;
71;1100,73;9084,90;311,39;16223,0000;65535,0000;35298,0000;19075,0000;0,0000;0,0000;0,0000;
72;1101,53;9078,29;317,99;8958,0000;65535,0000;27964,0000;19006,0000;0,0000;0,0000;0,0000;
73;1102,33;9071,70;324,59;18818,0000;65535,0000;37369,0000;18551,0000;0,0000;0,0000;0,0000;
74;1103,13;9065,12;331,17;21771,0000;65535,0000;40573,0000;18802,0000;0,0000;0,0000;0,0000;
75;1103,93;9058,54;337,74;14741,0000;65535,0000;33206,0000;18465,0000;0,0000;0,0000;0,0000;
76;1104,73;9051,98;344,31;14416,0000;65535,0000;32830,0000;18414,0000;0,0000;0,0000;0,0000;
77;1105,53;9045,42;350,87;17649,0000;65535,0000;35811,0000;18162,0000;0,0000;0,0000;0,0000;
78;1106,33;9038,87;357,41;20091,0000;65535,0000;38124,0000;18033,0000;0,0000;0,0000;0,0000;
79;1107,13;9032,34;363,95;28094,0000;65535,0000;45956,0000;17862,0000;0,0000;0,0000;0,0000;
80;1107,93;9025,81;370,48;29321,0000;65535,0000;47121,0000;17800,0000;0,0000;0,0000;0,0000;
81;1108,74;9019,29;377,00;13842,0000;65535,0000;31373,0000;17531,0000;0,0000;0,0000;0,0000;
82;1109,54;9012,77;383,51;13018,0000;65535,0000;30657,0000;17639,0000;0,0000;0,0000;0,0000;
83;1110,34;9006,27;390,02;11636,0000;65535,0000;28934,0000;17298,0000;0,0000;0,0000;0,0000;
84;1111,14;8999,78;396,51;21983,0000;65535,0000;39122,0000;17139,0000;0,0000;0,0000;0,0000;
85;1111,94;8993,29;403,00;18131,0000;65535,0000;34982,0000;16851,0000;0,0000;0,0000;0,0000;
86;1112,74;8986,82;409,47;19743,0000;65535,0000;36368,0000;16625,0000;0,0000;0,0000;0,0000;
87;1113,54;8980,35;415,94;19702,0000;65535,0000;36537,0000;16835,0000;0,0000;0,0000;0,0000;
88;1114,34;8973,89;422,40;16828,0000;65535,0000;33681,0000;16853,0000;0,0000;0,0000;0,0000;
89;1115,15;8967,44;428,85;15366,0000;65535,0000;31844,0000;16478,0000;0,0000;0,0000;0,0000;
90;1115,95;8961,00;435,29;20837,0000;65535,0000;37386,0000;16549,0000;0,0000;0,0000;0,0000;
91;1116,75;8954,57;441,72;20417,0000;65535,0000;36532,0000;16115,0000;0,0000;0,0000;0,0000;
92;1117,55;8948,14;448,14;13975,0000;65535,0000;30043,0000;16068,0000;0,0000;0,0000;0,0000;
93;1118,35;8941,73;454,56;15847,0000;65535,0000;31897,0000;16050,0000;0,0000;0,0000;0,0000;
94;1119,15;8935,32;460,96;17719,0000;65535,0000;33751,0000;16032,0000;0,0000;0,0000;0,0000;
95;1119,96;8928,93;467,36;8439,0000;65535,0000;23955,0000;15516,0000;0,0000;0,0000;0,0000;
96;1120,76;8922,54;473,75;10830,0000;65535,0000;26283,0000;15453,0000;0,0000;0,0000;0,0000;
97;1121,56;8916,16;480,13;20120,0000;65535,0000;35426,0000;15306,0000;0,0000;0,0000;0,0000;
98;1122,36;8909,79;486,50;16139,0000;65535,0000;31374,0000;15235,0000;0,0000;0,0000;0,0000;
99;1123,16;8903,42;492,86;16397,0000;65535,0000;31586,0000;15189,0000;0,0000;0,0000;0,0000;
100;1123,97;8897,07;499,22;16044,0000;65535,0000;31138,0000;15094,0000;0,0000;0,0000;0,0000;
101;1124,77;8890,73;505,56;17887,0000;65535,0000;33059,0000;15172,0000;0,0000;0,0000;0,0000;
102;1125,57;8884,39;511,90;11706,0000;65535,0000;26779,0000;15073,0000;0,0000;0,0000;0,0000;
103;1126,37;8878,06;518,23;18150,0000;65535,0000;33230,0000;15080,0000;0,0000;0,0000;0,0000;
104;1127,17;8871,74;524,55;19936,0000;65535,0000;34912,0000;14976,0000;0,0000;0,0000;0,0000;
105;1127,98;8865,43;530,86;17223,0000;65535,0000;31835,0000;14612,0000;0,0000;0,0000;0,0000;
106;1128,78;8859,13;537,16;9722,0000;65535,0000;24272,0000;14550,0000;0,0000;0,0000;0,0000;
107;1129,58;8852,83;543,46;9918,0000;65535,0000;24182,0000;14264,0000;0,0000;0,0000;0,0000;
108;1130,38;8846,55;549,74;19617,0000;65535,0000;33522,0000;13905,0000;0,0000;0,0000;0,0000;
109;1131,19;8840,27;556,02;19885,0000;65535,0000;33551,0000;13666,0000;0,0000;0,0000;0,0000;
110;1131,99;8834,00;562,29;16422,0000;65535,0000;29983,0000;13561,0000;0,0000;0,0000;0,0000;
111;1132,79;8827,74;568,55;21132,0000;65535,0000;34447,0000;13315,0000;0,0000;0,0000;0,0000;
112;1133,60;8821,49;574,80;15984,0000;65535,0000;29415,0000;13431,0000;0,0000;0,0000;0,0000;
113;1134,40;8815,24;581,05;21248,0000;65535,0000;34228,0000;12980,0000;0,0000;0,0000;0,0000;
114;1135,20;8809,01;587,28;20933,0000;65535,0000;33777,0000;12844,0000;0,0000;0,0000;0,0000;
115;1136,00;8802,78;593,51;20195,0000;65535,0000;32772,0000;12577,0000;0,0000;0,0000;0,0000;
116;1136,81;8796,56;599,73;6923,0000;65535,0000;19398,0000;12475,0000;0,0000;0,0000;0,0000;
117;1137,61;8790,35;605,94;17436,0000;65535,0000;29565,0000;12129,0000;0,0000;0,0000;0,0000;
118;1138,41;8784,15;612,14;14363,0000;65535,0000;26341,0000;11978,0000;0,0000;0,0000;0,0000;
119;1139,22;8777,96;618,33;23524,0000;65535,0000;35264,0000;11740,0000;0,0000;0,0000;0,0000;
120;1140,02;8771,77;624,52;20340,0000;65535,0000;31851,0000;11511,0000;0,0000;0,0000;0,0000;
121;1140,82;8765,59;630,70;10357,0000;65535,0000;21771,0000;11414,0000;0,0000;0,0000;0,0000;
122;1141,63;8759,42;636,87;14173,0000;65535,0000;25406,0000;11233,0000;0,0000;0,0000;0,0000;
123;1142,43;8753,26;643,03;9564,0000;65535,0000;20377,0000;10813,0000;0,0000;0,0000;0,0000;
124;1143,23;8747,11;649,18;22336,0000;65535,0000;32914,0000;10578,0000;0,0000;0,0000;0,0000;
125;1144,04;8740,96;655,32;21811,0000;65535,0000;32124,0000;10313,0000;0,0000;0,0000;0,0000;
126;1144,84;8734,83;661,46;25057,0000;65535,0000;35127,0000;10070,0000;0,0000;0,0000;0,0000;
127;1145,65;8728,70;667,59;15915,0000;65535,0000;25763,0000;9848,0000;0,0000;0,0000;0,0000;
128;1146,45;8722,58;673,71;21159,0000;65535,0000;31038,0000;9879,0000;0,0000;0,0000;0,0000;
129;1147,25;8716,47;679,82;15582,0000;65535,0000;25108,0000;9526,0000;0,0000;0,0000;0,0000;
130;1148,06;8710,36;685,93;11304,0000;65535,0000;21002,0000;9698,0000;0,0000;0,0000;0,0000;
131;1148,86;8704,27;692,02;18104,0000;65535,0000;27727,0000;9623,0000;0,0000;0,0000;0,0000;
132;1149,67;8698,18;698,11;10930,0000;65535,0000;20052,0000;9122,0000;0,0000;0,0000;0,0000;
133;1150,47;8692,10;704,19;10615,0000;65535,0000;20020,0000;9405,0000;0,0000;0,0000;0,0000;
134;1151,27;8686,03;710,26;18667,0000;65535,0000;27803,0000;9136,0000;0,0000;0,0000;0,0000;
135;1152,08;8679,96;716,33;12735,0000;65535,0000;21914,0000;9179,0000;0,0000;0,0000;0,0000;
136;1152,88;8673,91;722,38;16558,0000;65535,0000;25509,0000;8951,0000;0,0000;0,0000;0,0000;
137;1153,69;8667,86;728,43;13161,0000;65535,0000;21765,0000;8604,0000;0,0000;0,0000;0,0000;
138;1154,49;8661,82;734,47;11130,0000;65535,0000;19728,0000;8598,0000;0,0000;0,0000;0,0000;
139;1155,30;8655,78;740,50;19817,0000;65535,0000;28417,0000;8600,0000;0,0000;0,0000;0,0000;
140;1156,10;8649,76;746,53;15489,0000;65535,0000;23970,0000;8481,0000;0,0000;0,0000;0,0000;
141;1156,91;8643,74;752,54;11134,0000;65535,0000;19375,0000;8241,0000;0,0000;0,0000;0,0000;
142;1157,71;8637,74;758,55;9843,0000;65535,0000;18132,0000;8289,0000;0,0000;0,0000;0,0000;
143;1158,52;8631,73;764,55;12426,0000;65535,0000;20434,0000;8008,0000;0,0000;0,0000;0,0000;
144;1159,32;8625,74;770,55;16692,0000;65535,0000;25017,0000;8325,0000;0,0000;0,0000;0,0000;
145;1160,13;8619,76;776,53;17923,0000;65535,0000;26039,0000;8116,0000;0,0000;0,0000;0,0000;
146;1160,93;8613,78;782,51;20800,0000;65535,0000;28693,0000;7893,0000;0,0000;0,0000;0,0000;
147;1161,74;8607,81;788,48;14353,0000;65535,0000;22329,0000;7976,0000;0,0000;0,0000;0,0000;
148;1162,54;8601,85;794,44;17829,0000;65535,0000;25805,0000;7976,0000;0,0000;0,0000;0,0000;
149;1163,35;8595,89;800,39;16913,0000;65535,0000;24650,0000;7737,0000;0,0000;0,0000;0,0000;
150;1164,15;8589,95;806,34;8813,0000;65535,0000;16713,0000;7900,0000;0,0000;0,0000;0,0000;
151;1164,96;8584,01;812,28;20302,0000;65535,0000;28008,0000;7706,0000;0,0000;0,0000;0,0000;
152;1165,76;8578,08;818,21;15294,0000;65535,0000;22966,0000;7672,0000;0,0000;0,0000;0,0000;
153;1166,57;8572,16;824,13;18304,0000;65535,0000;25864,0000;7560,0000;0,0000;0,0000;0,0000;
154;1167,37;8566,24;830,05;10198,0000;65535,0000;17619,0000;7421,0000;0,0000;0,0000;0,0000;
155;1168,18;8560,33;835,95;17836,0000;65535,0000;25448,0000;7612,0000;0,0000;0,0000;0,0000;
156;1168,98;8554,43;841,85;15285,0000;65535,0000;22878,0000;7593,0000;0,0000;0,0000;0,0000;
157;1169,79;8548,54;847,75;20432,0000;65535,0000;27821,0000;7389,0000;0,0000;0,0000;0,0000;
158;1170,60;8542,66;853,63;16536,0000;65535,0000;23955,0000;7419,0000;0,0000;0,0000;0,0000;
159;1171,40;8536,78;859,51;11667,0000;65535,0000;19053,0000;7386,0000;0,0000;0,0000;0,0000;
160;1172,21;8530,91;865,38;19912,0000;65535,0000;27584,0000;7672,0000;0,0000;0,0000;0,0000;
161;1173,01;8525,05;871,24;12189,0000;65535,0000;19815,0000;7626,0000;0,0000;0,0000;0,0000;
162;1173,82;8519,19;877,09;9461,0000;65535,0000;16985,0000;7524,0000;0,0000;0,0000;0,0000;
163;1174,63;8513,35;882,94;18902,0000;65535,0000;26608,0000;7706,0000;0,0000;0,0000;0,0000;
164;1175,43;8507,51;888,78;16956,0000;65535,0000;24615,0000;7659,0000;0,0000;0,0000;0,0000;
165;1176,24;8501,68;894,61;11681,0000;65535,0000;19143,0000;7462,0000;0,0000;0,0000;0,0000;
166;1177,05;8495,85;900,44;11132,0000;65535,0000;18532,0000;7400,0000;0,0000;0,0000;0,0000;
167;1177,85;8490,04;906,25;15764,0000;65535,0000;23094,0000;7330,0000;0,0000;0,0000;0,0000;
168;1178,66;8484,23;912,06;13020,0000;65535,0000;20444,0000;7424,0000;0,0000;0,0000;0,0000;
169;1179,46;8478,42;917,86;18481,0000;65535,0000;25808,0000;7327,0000;0,0000;0,0000;0,0000;
170;1180,27;8472,63;923,66;14377,0000;65535,0000;21602,0000;7225,0000;0,0000;0,0000;0,0000;
171;1181,08;8466,84;929,45;13252,0000;65535,0000;20547,0000;7295,0000;0,0000;0,0000;0,0000;
172;1181,88;8461,06;935,23;8789,0000;65535,0000;15799,0000;7010,0000;0,0000;0,0000;0,0000;
173;1182,69;8455,29;941,00;18452,0000;65535,0000;25370,0000;6918,0000;0,0000;0,0000;0,0000;
174;1183,50;8449,53;946,76;18097,0000;65535,0000;25013,0000;6916,0000;0,0000;0,0000;0,0000;
175;1184,31;8443,77;952,52;16942,0000;65535,0000;23719,0000;6777,0000;0,0000;0,0000;0,0000;
176;1185,11;8438,02;958,27;6679,0000;65535,0000;13491,0000;6812,0000;0,0000;0,0000;0,0000;
177;1185,92;8432,28;964,01;20279,0000;65535,0000;26992,0000;6713,0000;0,0000;0,0000;0,0000;
178;1186,73;8426,54;969,75;13277,0000;65535,0000;20244,0000;6967,0000;0,0000;0,0000;0,0000;
179;1187,53;8420,81;975,48;17493,0000;65535,0000;24585,0000;7092,0000;0,0000;0,0000;0,0000;
180;1188,34;8415,09;981,20;19691,0000;65535,0000;27253,0000;7562,0000;0,0000;0,0000;0,0000;
181;1189,15;8409,38;986,91;14817,0000;65535,0000;22496,0000;7679,0000;0,0000;0,0000;0,0000;
182;1189,96;8403,67;992,62;14470,0000;65535,0000;22826,0000;8356,0000;0,0000;0,0000;0,0000;
183;1190,76;8397,97;998,32;12044,0000;65535,0000;21672,0000;9628,0000;0,0000;0,0000;0,0000;
184;1191,57;8392,28;1004,01;18116,0000;65535,0000;28382,0000;10266,0000;0,0000;0,0000;0,0000;
185;1192,38;8386,60;1009,69;20038,0000;65535,0000;29753,0000;9715,0000;0,0000;0,0000;0,0000;
186;1193,19;8380,92;1015,37;23034,0000;65535,0000;31370,0000;8336,0000;0,0000;0,0000;0,0000;
187;1193,99;8375,25;1021,04;16638,0000;65535,0000;24052,0000;7414,0000;0,0000;0,0000;0,0000;
188;1194,80;8369,59;1026,70;20314,0000;65535,0000;27574,0000;7260,0000;0,0000;0,0000;0,0000;
189;1195,61;8363,93;1032,36;20620,0000;65535,0000;27574,0000;6954,0000;0,0000;0,0000;0,0000;
190;1196,42;8358,28;1038,01;20987,0000;65535,0000;27860,0000;6873,0000;0,0000;0,0000;0,0000;
191;1197,23;8352,64;1043,65;8804,0000;65535,0000;15631,0000;6827,0000;0,0000;0,0000;0,0000;
192;1198,03;8347,01;1049,28;11946,0000;65535,0000;18740,0000;6794,0000;0,0000;0,0000;0,0000;
193;1198,84;8341,38;1054,91;18049,0000;65535,0000;24810,0000;6761,0000;0,0000;0,0000;0,0000;
194;1199,65;8335,76;1060,53;17910,0000;65535,0000;24638,0000;6728,0000;0,0000;0,0000;0,0000;
195;1200,46;8330,15;1066,14;13986,0000;65535,0000;20806,0000;6820,0000;0,0000;0,0000;0,0000;
196;1201,27;8324,54;1071,75;21982,0000;65535,0000;28547,0000;6565,0000;0,0000;0,0000;0,0000;
197;1202,08;8318,94;1077,35;17339,0000;65535,0000;23786,0000;6447,0000;0,0000;0,0000;0,0000;
198;1202,88;8313,35;1082,94;13388,0000;65535,0000;20066,0000;6678,0000;0,0000;0,0000;0,0000;
199;1203,69;8307,76;1088,52;16335,0000;65535,0000;22909,0000;6574,0000;0,0000;0,0000;0,0000;
200;1204,50;8302,19;1094,10;18128,0000;65535,0000;24584,0000;6456,0000;0,0000;0,0000;0,0000;
201;1205,31;8296,62;1099,67;16044,0000;65535,0000;22367,0000;6323,0000;0,0000;0,0000;0,0000;
202;1206,12;8291,05;1105,24;14887,0000;65535,0000;21174,0000;6287,0000;0,0000;0,0000;0,0000;
203;1206,93;8285,49;1110,79;13342,0000;65535,0000;19586,0000;6244,0000;0,0000;0,0000;0,0000;
204;1207,74;8279,94;1116,34;14567,0000;65535,0000;20818,0000;6251,0000;0,0000;0,0000;0,0000;
205;1208,55;8274,40;1121,89;20216,0000;65535,0000;26577,0000;6361,0000;0,0000;0,0000;0,0000;
206;1209,36;8268,87;1127,42;9087,0000;65535,0000;15281,0000;6194,0000;0,0000;0,0000;0,0000;
207;1210,17;8263,34;1132,95;21500,0000;65535,0000;27657,0000;6157,0000;0,0000;0,0000;0,0000;
208;1210,97;8257,81;1138,47;15410,0000;65535,0000;21621,0000;6211,0000;0,0000;0,0000;0,0000;
209;1211,78;8252,30;1143,99;21059,0000;65535,0000;27414,0000;6355,0000;0,0000;0,0000;0,0000;
210;1212,59;8246,79;1149,50;13434,0000;65535,0000;19853,0000;6419,0000;0,0000;0,0000;0,0000;
211;1213,40;8241,29;1155,00;15648,0000;65535,0000;22197,0000;6549,0000;0,0000;0,0000;0,0000;
212;1214,21;8235,79;1160,50;14435,0000;65535,0000;20759,0000;6324,0000;0,0000;0,0000;0,0000;
213;1215,02;8230,31;1165,98;14674,0000;65535,0000;21090,0000;6416,0000;0,0000;0,0000;0,0000;
214;1215,83;8224,82;1171,46;17144,0000;65535,0000;23363,0000;6219,0000;0,0000;0,0000;0,0000;
215;1216,64;8219,35;1176,94;18287,0000;65535,0000;24491,0000;6204,0000;0,0000;0,0000;0,0000;
216;1217,45;8213,88;1182,41;15395,0000;65535,0000;21577,0000;6182,0000;0,0000;0,0000;0,0000;
217;1218,26;8208,42;1187,87;22835,0000;65535,0000;28917,0000;6082,0000;0,0000;0,0000;0,0000;
218;1219,07;8202,97;1193,32;10959,0000;65535,0000;17064,0000;6105,0000;0,0000;0,0000;0,0000;
219;1219,88;8197,52;1198,77;16283,0000;65535,0000;22487,0000;6204,0000;0,0000;0,0000;0,0000;
220;1220,69;8192,08;1204,21;19867,0000;65535,0000;26086,0000;6219,0000;0,0000;0,0000;0,0000;
221;1221,50;8186,65;1209,64;11304,0000;65535,0000;17410,0000;6106,0000;0,0000;0,0000;0,0000;
222;1222,31;8181,22;1215,07;19120,0000;65535,0000;25263,0000;6143,0000;0,0000;0,0000;0,0000;
223;1223,12;8175,80;1220,49;18230,0000;65535,0000;24293,0000;6063,0000;0,0000;0,0000;0,0000;
224;1223,93;8170,38;1225,90;17755,0000;65535,0000;23796,0000;6041,0000;0,0000;0,0000;0,0000;
225;1224,74;8164,98;1231,31;8423,0000;65535,0000;14718,0000;6295,0000;0,0000;0,0000;0,0000;
226;1225,55;8159,58;1236,71;26069,0000;65535,0000;32236,0000;6167,0000;0,0000;0,0000;0,0000;
227;1226,36;8154,18;1242,11;21034,0000;65535,0000;27279,0000;6245,0000;0,0000;0,0000;0,0000;
228;1227,18;8148,80;1247,49;8739,0000;65535,0000;14932,0000;6193,0000;0,0000;0,0000;0,0000;
229;1227,99;8143,42;1252,87;14508,0000;65535,0000;20521,0000;6013,0000;0,0000;0,0000;0,0000;
230;1228,80;8138,04;1258,25;16695,0000;65535,0000;22798,0000;6103,0000;0,0000;0,0000;0,0000;
231;1229,61;8132,67;1263,61;16861,0000;65535,0000;23011,0000;6150,0000;0,0000;0,0000;0,0000;
232;1230,42;8127,31;1268,98;14452,0000;65535,0000;20391,0000;5939,0000;0,0000;0,0000;0,0000;
233;1231,23;8121,96;1274,33;17119,0000;65535,0000;23245,0000;6126,0000;0,0000;0,0000;0,0000;
234;1232,04;8116,61;1279,68;15225,0000;65535,0000;21492,0000;6267,0000;0,0000;0,0000;0,0000;
235;1232,85;8111,27;1285,02;17905,0000;65535,0000;23980,0000;6075,0000;0,0000;0,0000;0,0000;
236;1233,66;8105,94;1290,35;14096,0000;65535,0000;20412,0000;6316,0000;0,0000;0,0000;0,0000;
237;1234,48;8100,61;1295,68;18472,0000;65535,0000;24651,0000;6179,0000;0,0000;0,0000;0,0000;
238;1235,29;8095,29;1301,00;13403,0000;65535,0000;19673,0000;6270,0000;0,0000;0,0000;0,0000;
239;1236,10;8089,97;1306,32;12009,0000;65535,0000;18307,0000;6298,0000;0,0000;0,0000;0,0000;
240;1236,91;8084,66;1311,63;11746,0000;65535,0000;17788,0000;6042,0000;0,0000;0,0000;0,0000;
241;1237,72;8079,36;1316,93;21890,0000;65535,0000;28280,0000;6390,0000;0,0000;0,0000;0,0000;
242;1238,53;8074,07;1322,22;16414,0000;65535,0000;22640,0000;6226,0000;0,0000;0,0000;0,0000;
243;1239,35;8068,78;1327,51;17141,0000;65535,0000;23460,0000;6319,0000;0,0000;0,0000;0,0000;
244;1240,16;8063,49;1332,79;15205,0000;65535,0000;21566,0000;6361,0000;0,0000;0,0000;0,0000;
245;1240,97;8058,22;1338,07;11081,0000;65535,0000;17236,0000;6155,0000;0,0000;0,0000;0,0000;
246;1241,78;8052,95;1343,34;24110,0000;65535,0000;30510,0000;6400,0000;0,0000;0,0000;0,0000;
247;1242,59;8047,68;1348,60;15133,0000;65535,0000;21342,0000;6209,0000;0,0000;0,0000;0,0000;
248;1243,41;8042,43;1353,86;7710,0000;65535,0000;14113,0000;6403,0000;0,0000;0,0000;0,0000;
249;1244,22;8037,18;1359,11;19513,0000;65535,0000;25866,0000;6353,0000;0,0000;0,0000;0,0000;
250;1245,03;8031,93;1364,36;12880,0000;65535,0000;19161,0000;6281,0000;0,0000;0,0000;0,0000;
251;1245,84;8026,69;1369,59;23265,0000;65535,0000;29477,0000;6212,0000;0,0000;0,0000;0,0000;
252;1246,66;8021,46;1374,83;15482,0000;65535,0000;21776,0000;6294,0000;0,0000;0,0000;0,0000;
253;1247,47;8016,24;1380,05;16109,0000;65535,0000;22358,0000;6249,0000;0,0000;0,0000;0,0000;
254;1248,28;8011,02;1385,27;14837,0000;65535,0000;21103,0000;6266,0000;0,0000;0,0000;0,0000;
255;1249,09;8005,81;1390,48;9271,0000;65535,0000;15492,0000;6221,0000;0,0000;0,0000;0,0000;
256;1249,91;8000,60;1395,69;26194,0000;65535,0000;32428,0000;6234,0000;0,0000;0,0000;0,0000;
257;1250,72;7995,40;1400,89;13822,0000;65535,0000;20092,0000;6270,0000;0,0000;0,0000;0,0000;
258;1251,53;7990,20;1406,08;13964,0000;65535,0000;20196,0000;6232,0000;0,0000;0,0000;0,0000;
259;1252,35;7985,02;1411,27;14275,0000;65535,0000;20519,0000;6244,0000;0,0000;0,0000;0,0000;
260;1253,16;7979,84;1416,45;15957,0000;65535,0000;22300,0000;6343,0000;0,0000;0,0000;0,0000;
261;1253,97;7974,66;1421,63;23503,0000;65535,0000;29760,0000;6257,0000;0,0000;0,0000;0,0000;
262;1254,79;7969,49;1426,80;13213,0000;65535,0000;19512,0000;6299,0000;0,0000;0,0000;0,0000;
263;1255,60;7964,33;1431,96;14968,0000;65535,0000;21230,0000;6262,0000;0,0000;0,0000;0,0000;
264;1256,41;7959,17;1437,12;19094,0000;65535,0000;25394,0000;6300,0000;0,0000;0,0000;0,0000;
265;1257,23;7954,02;1442,27;9539,0000;65535,0000;15982,0000;6443,0000;0,0000;0,0000;0,0000;
266;1258,04;7948,88;1447,41;14464,0000;65535,0000;20758,0000;6294,0000;0,0000;0,0000;0,0000;
267;1258,85;7943,74;1452,55;19551,0000;65535,0000;26011,0000;6460,0000;0,0000;0,0000;0,0000;
268;1259,67;7938,61;1457,68;18955,0000;65535,0000;25456,0000;6501,0000;0,0000;0,0000;0,0000;
269;1260,48;7933,48;1462,81;17352,0000;65535,0000;23779,0000;6427,0000;0,0000;0,0000;0,0000;
270;1261,29;7928,36;1467,93;18931,0000;65535,0000;25243,0000;6312,0000;0,0000;0,0000;0,0000;
271;1262,11;7923,25;1473,04;15134,0000;65535,0000;21395,0000;6261,0000;0,0000;0,0000;0,0000;
272;1262,92;7918,14;1478,15;8901,0000;65535,0000;15332,0000;6431,0000;0,0000;0,0000;0,0000;
273;1263,74;7913,04;1483,25;12788,0000;65535,0000;18977,0000;6189,0000;0,0000;0,0000;0,0000;
274;1264,55;7907,94;1488,34;20370,0000;65535,0000;26864,0000;6494,0000;0,0000;0,0000;0,0000;
275;1265,37;7902,86;1493,43;23564,0000;65535,0000;29712,0000;6148,0000;0,0000;0,0000;0,0000;
276;1266,18;7897,77;1498,52;17475,0000;65535,0000;23532,0000;6057,0000;0,0000;0,0000;0,0000;
277;1266,99;7892,69;1503,59;11879,0000;65535,0000;18012,0000;6133,0000;0,0000;0,0000;0,0000;
278;1267,81;7887,62;1508,66;20563,0000;65535,0000;26755,0000;6192,0000;0,0000;0,0000;0,0000;
279;1268,62;7882,56;1513,73;12140,0000;65535,0000;18055,0000;5915,0000;0,0000;0,0000;0,0000;
280;1269,44;7877,50;1518,79;11453,0000;65535,0000;17420,0000;5967,0000;0,0000;0,0000;0,0000;
281;1270,25;7872,45;1523,84;15605,0000;65535,0000;21734,0000;6129,0000;0,0000;0,0000;0,0000;
282;1271,07;7867,40;1528,89;13921,0000;65535,0000;20088,0000;6167,0000;0,0000;0,0000;0,0000;
283;1271,88;7862,36;1533,93;13430,0000;65535,0000;19553,0000;6123,0000;0,0000;0,0000;0,0000;
284;1272,70;7857,32;1538,97;27536,0000;65535,0000;33741,0000;6205,0000;0,0000;0,0000;0,0000;
285;1273,51;7852,29;1543,99;19415,0000;65535,0000;25883,0000;6468,0000;0,0000;0,0000;0,0000;
286;1274,33;7847,27;1549,02;2358,0000;65535,0000;8573,0000;6215,0000;0,0000;0,0000;0,0000;
287;1275,14;7842,25;1554,03;17314,0000;65535,0000;23806,0000;6492,0000;0,0000;0,0000;0,0000;
288;1275,96;7837,24;1559,05;12179,0000;65535,0000;18782,0000;6603,0000;0,0000;0,0000;0,0000;
289;1276,77;7832,24;1564,05;12393,0000;65535,0000;18917,0000;6524,0000;0,0000;0,0000;0,0000;
290;1277,59;7827,24;1569,05;19567,0000;65535,0000;26258,0000;6691,0000;0,0000;0,0000;0,0000;
291;1278,41;7822,24;1574,04;17951,0000;65535,0000;24594,0000;6643,0000;0,0000;0,0000;0,0000;
292;1279,22;7817,26;1579,03;23780,0000;65535,0000;30653,0000;6873,0000;0,0000;0,0000;0,0000;
293;1280,04;7812,27;1584,01;7169,0000;65535,0000;14221,0000;7052,0000;0,0000;0,0000;0,0000;
294;1280,85;7807,30;1588,99;6008,0000;65535,0000;12974,0000;6966,0000;0,0000;0,0000;0,0000;
295;1281,67;7802,33;1593,96;12593,0000;65535,0000;19841,0000;7248,0000;0,0000;0,0000;0,0000;
296;1282,48;7797,36;1598,93;20142,0000;65535,0000;27290,0000;7148,0000;0,0000;0,0000;0,0000;
297;1283,30;7792,40;1603,88;17892,0000;65535,0000;25341,0000;7449,0000;0,0000;0,0000;0,0000;
298;1284,12;7787,45;1608,84;21285,0000;65535,0000;28540,0000;7255,0000;0,0000;0,0000;0,0000;
299;1284,93;7782,50;1613,78;19436,0000;65535,0000;26837,0000;7401,0000;0,0000;0,0000;0,0000;
300;1285,75;7777,56;1618,73;16864,0000;65535,0000;24130,0000;7266,0000;0,0000;0,0000;0,0000;
301;1286,57;7772,63;1623,66;18784,0000;65535,0000;26320,0000;7536,0000;0,0000;0,0000;0,0000;
302;1287,38;7767,70;1628,59;15072,0000;65535,0000;22656,0000;7584,0000;0,0000;0,0000;0,0000;
303;1288,20;7762,77;1633,51;19178,0000;65535,0000;26877,0000;7699,0000;0,0000;0,0000;0,0000;
304;1289,02;7757,86;1638,43;13509,0000;65535,0000;20907,0000;7398,0000;0,0000;0,0000;0,0000;
305;1289,83;7752,94;1643,34;14091,0000;65535,0000;21535,0000;7444,0000;0,0000;0,0000;0,0000;
306;1290,65;7748,04;1648,25;15444,0000;65535,0000;23049,0000;7605,0000;0,0000;0,0000;0,0000;
307;1291,47;7743,14;1653,15;16397,0000;65535,0000;23822,0000;7425,0000;0,0000;0,0000;0,0000;
308;1292,28;7738,24;1658,05;16385,0000;65535,0000;23575,0000;7190,0000;0,0000;0,0000;0,0000;
309;1293,10;7733,35;1662,94;20771,0000;65535,0000;28002,0000;7231,0000;0,0000;0,0000;0,0000;
310;1293,92;7728,47;1667,82;15314,0000;65535,0000;22489,0000;7175,0000;0,0000;0,0000;0,0000;
311;1294,73;7723,59;1672,70;17897,0000;65535,0000;24788,0000;6891,0000;0,0000;0,0000;0,0000;
312;1295,55;7718,72;1677,57;14770,0000;65535,0000;21654,0000;6884,0000;0,0000;0,0000;0,0000;
313;1296,37;7713,85;1682,44;11558,0000;65535,0000;18358,0000;6800,0000;0,0000;0,0000;0,0000;
314;1297,19;7708,99;1687,30;13456,0000;65535,0000;19982,0000;6526,0000;0,0000;0,0000;0,0000;
315;1298,00;7704,13;1692,16;18310,0000;65535,0000;24593,0000;6283,0000;0,0000;0,0000;0,0000;
316;1298,82;7699,28;1697,01;23851,0000;65535,0000;29862,0000;6011,0000;0,0000;0,0000;0,0000;
317;1299,64;7694,44;1701,85;16312,0000;65535,0000;22114,0000;5802,0000;0,0000;0,0000;0,0000;
318;1300,46;7689,60;1706,69;5124,0000;65535,0000;10728,0000;5604,0000;0,0000;0,0000;0,0000;
319;1301,28;7684,77;1711,52;19058,0000;65535,0000;24604,0000;5546,0000;0,0000;0,0000;0,0000;
320;1302,09;7679,94;1716,35;19694,0000;65535,0000;24987,0000;5293,0000;0,0000;0,0000;0,0000;
321;1302,91;7675,12;1721,17;22552,0000;65535,0000;27858,0000;5306,0000;0,0000;0,0000;0,0000;
322;1303,73;7670,30;1725,99;22909,0000;65535,0000;28046,0000;5137,0000;0,0000;0,0000;0,0000;
323;1304,55;7665,49;1730,80;12131,0000;65535,0000;17247,0000;5116,0000;0,0000;0,0000;0,0000;
324;1305,37;7660,68;1735,60;10301,0000;65535,0000;15408,0000;5107,0000;0,0000;0,0000;0,0000;
325;1306,18;7655,88;1740,40;15192,0000;65535,0000;20155,0000;4963,0000;0,0000;0,0000;0,0000;
326;1307,00;7651,09;1745,20;17645,0000;65535,0000;22643,0000;4998,0000;0,0000;0,0000;0,0000;
327;1307,82;7646,30;1749,99;25412,0000;65535,0000;30320,0000;4908,0000;0,0000;0,0000;0,0000;
328;1308,64;7641,52;1754,77;24098,0000;65535,0000;28949,0000;4851,0000;0,0000;0,0000;0,0000;
329;1309,46;7636,74;1759,55;17909,0000;65535,0000;22643,0000;4734,0000;0,0000;0,0000;0,0000;
330;1310,28;7631,97;1764,32;21082,0000;65535,0000;25739,0000;4657,0000;0,0000;0,0000;0,0000;
331;1311,10;7627,20;1769,09;14467,0000;65535,0000;19013,0000;4546,0000;0,0000;0,0000;0,0000;
332;1311,92;7622,44;1773,85;12141,0000;65535,0000;16696,0000;4555,0000;0,0000;0,0000;0,0000;
333;1312,74;7617,68;1778,61;10339,0000;65535,0000;15002,0000;4663,0000;0,0000;0,0000;0,0000;
334;1313,55;7612,93;1783,36;9664,0000;65535,0000;14252,0000;4588,0000;0,0000;0,0000;0,0000;
335;1314,37;7608,19;1788,10;16372,0000;65535,0000;20796,0000;4424,0000;0,0000;0,0000;0,0000;
336;1315,19;7603,45;1792,84;19104,0000;65535,0000;23569,0000;4465,0000;0,0000;0,0000;0,0000;
337;1316,01;7598,71;1797,58;16969,0000;65535,0000;21339,0000;4370,0000;0,0000;0,0000;0,0000;
338;1316,83;7593,98;1802,31;12310,0000;65535,0000;16440,0000;4130,0000;0,0000;0,0000;0,0000;
339;1317,65;7589,26;1807,03;12306,0000;65535,0000;16579,0000;4273,0000;0,0000;0,0000;0,0000;
340;1318,47;7584,54;1811,75;21780,0000;65535,0000;26056,0000;4276,0000;0,0000;0,0000;0,0000;
341;1319,29;7579,83;1816,46;10251,0000;65535,0000;14224,0000;3973,0000;0,0000;0,0000;0,0000;
342;1320,11;7575,12;1821,17;5865,0000;65535,0000;9701,0000;3836,0000;0,0000;0,0000;0,0000;
343;1320,93;7570,42;1825,87;15033,0000;65535,0000;18929,0000;3896,0000;0,0000;0,0000;0,0000;
344;1321,75;7565,72;1830,57;18495,0000;65535,0000;22419,0000;3924,0000;0,0000;0,0000;0,0000;
345;1322,57;7561,03;1835,26;15080,0000;65535,0000;18779,0000;3699,0000;0,0000;0,0000;0,0000;
346;1323,39;7556,35;1839,94;19443,0000;65535,0000;23181,0000;3738,0000;0,0000;0,0000;0,0000;
347;1324,21;7551,66;1844,62;16022,0000;65535,0000;19783,0000;3761,0000;0,0000;0,0000;0,0000;
348;1325,03;7546,99;1849,30;15849,0000;65535,0000;19313,0000;3464,0000;0,0000;0,0000;0,0000;
349;1325,85;7542,32;1853,97;21750,0000;65535,0000;25408,0000;3658,0000;0,0000;0,0000;0,0000;
350;1326,67;7537,65;1858,63;16264,0000;65535,0000;19910,0000;3646,0000;0,0000;0,0000;0,0000;
351;1327,49;7532,99;1863,29;12099,0000;65535,0000;15533,0000;3434,0000;0,0000;0,0000;0,0000;
352;1328,31;7528,34;1867,95;19135,0000;65535,0000;22413,0000;3278,0000;0,0000;0,0000;0,0000;
353;1329,13;7523,69;1872,60;11441,0000;65535,0000;14870,0000;3429,0000;0,0000;0,0000;0,0000;
354;1329,96;7519,05;1877,24;12473,0000;65535,0000;15810,0000;3337,0000;0,0000;0,0000;0,0000;
355;1330,78;7514,41;1881,88;19171,0000;65535,0000;22580,0000;3409,0000;0,0000;0,0000;0,0000;
356;1331,60;7509,77;1886,51;13104,0000;65535,0000;16358,0000;3254,0000;0,0000;0,0000;0,0000;
357;1332,42;7505,15;1891,14;21121,0000;65535,0000;24267,0000;3146,0000;0,0000;0,0000;0,0000;
358;1333,24;7500,52;1895,76;7997,0000;65535,0000;11074,0000;3077,0000;0,0000;0,0000;0,0000;
359;1334,06;7495,91;1900,38;12468,0000;65535,0000;15600,0000;3132,0000;0,0000;0,0000;0,0000;
360;1334,88;7491,29;1904,99;19803,0000;65535,0000;22912,0000;3109,0000;0,0000;0,0000;0,0000;
361;1335,70;7486,69;1909,60;21821,0000;65535,0000;24807,0000;2986,0000;0,0000;0,0000;0,0000;
362;1336,53;7482,08;1914,20;15253,0000;65535,0000;18379,0000;3126,0000;0,0000;0,0000;0,0000;
363;1337,35;7477,49;1918,80;13634,0000;65535,0000;16562,0000;2928,0000;0,0000;0,0000;0,0000;
364;1338,17;7472,89;1923,39;16072,0000;65535,0000;19012,0000;2940,0000;0,0000;0,0000;0,0000;
365;1338,99;7468,31;1927,98;13093,0000;65535,0000;15857,0000;2764,0000;0,0000;0,0000;0,0000;
366;1339,81;7463,73;1932,56;14426,0000;65535,0000;17146,0000;2720,0000;0,0000;0,0000;0,0000;
367;1340,64;7459,15;1937,14;23948,0000;65535,0000;26548,0000;2600,0000;0,0000;0,0000;0,0000;
368;1341,46;7454,58;1941,71;20143,0000;65535,0000;22914,0000;2771,0000;0,0000;0,0000;0,0000;
369;1342,28;7450,01;1946,28;13760,0000;65535,0000;16391,0000;2631,0000;0,0000;0,0000;0,0000;
370;1343,10;7445,45;1950,84;21351,0000;65535,0000;23943,0000;2592,0000;0,0000;0,0000;0,0000;
371;1343,92;7440,90;1955,39;10456,0000;65535,0000;12893,0000;2437,0000;0,0000;0,0000;0,0000;
372;1344,75;7436,34;1959,94;24248,0000;65535,0000;26596,0000;2348,0000;0,0000;0,0000;0,0000;
373;1345,57;7431,80;1964,49;13604,0000;65535,0000;16013,0000;2409,0000;0,0000;0,0000;0,0000;
374;1346,39;7427,26;1969,03;13849,0000;65535,0000;16217,0000;2368,0000;0,0000;0,0000;0,0000;
375;1347,21;7422,72;1973,57;9562,0000;65535,0000;11945,0000;2383,0000;0,0000;0,0000;0,0000;
376;1348,04;7418,19;1978,10;10297,0000;65535,0000;12662,0000;2365,0000;0,0000;0,0000;0,0000;
377;1348,86;7413,67;1982,62;19732,0000;65535,0000;22057,0000;2325,0000;0,0000;0,0000;0,0000;
378;1349,68;7409,14;1987,14;16554,0000;65535,0000;18780,0000;2226,0000;0,0000;0,0000;0,0000;
379;1350,51;7404,63;1991,66;7870,0000;65535,0000;10233,0000;2363,0000;0,0000;0,0000;0,0000;
380;1351,33;7400,12;1996,17;21730,0000;65535,0000;23995,0000;2265,0000;0,0000;0,0000;0,0000;
381;1352,15;7395,61;2000,68;19247,0000;65535,0000;21654,0000;2407,0000;0,0000;0,0000;0,0000;
382;1352,98;7391,11;2005,18;12060,0000;65535,0000;14342,0000;2282,0000;0,0000;0,0000;0,0000;
383;1353,80;7386,62;2009,67;20052,0000;65535,0000;22261,0000;2209,0000;0,0000;0,0000;0,0000;
384;1354,62;7382,13;2014,16;11947,0000;65535,0000;13996,0000;2049,0000;0,0000;0,0000;0,0000;
385;1355,45;7377,64;2018,65;18758,0000;65535,0000;20828,0000;2070,0000;0,0000;0,0000;0,0000;
386;1356,27;7373,16;2023,13;21798,0000;65535,0000;23899,0000;2101,0000;0,0000;0,0000;0,0000;
387;1357,09;7368,68;2027,61;14091,0000;65535,0000;16227,0000;2136,0000;0,0000;0,0000;0,0000;
388;1357,92;7364,21;2032,08;14506,0000;65535,0000;16660,0000;2154,0000;0,0000;0,0000;0,0000;
389;1358,74;7359,75;2036,54;19178,0000;65535,0000;21262,0000;2084,0000;0,0000;0,0000;0,0000;
390;1359,57;7355,28;2041,00;21930,0000;65535,0000;24013,0000;2083,0000;0,0000;0,0000;0,0000;
391;1360,39;7350,83;2045,46;16778,0000;65535,0000;18785,0000;2007,0000;0,0000;0,0000;0,0000;
392;1361,22;7346,38;2049,91;18005,0000;65535,0000;19882,0000;1877,0000;0,0000;0,0000;0,0000;
393;1362,04;7341,93;2054,36;16356,0000;65535,0000;18210,0000;1854,0000;0,0000;0,0000;0,0000;
394;1362,86;7337,49;2058,80;21238,0000;65535,0000;22898,0000;1660,0000;0,0000;0,0000;0,0000;
395;1363,69;7333,05;2063,24;15663,0000;65535,0000;17466,0000;1803,0000;0,0000;0,0000;0,0000;
396;1364,51;7328,62;2067,67;13151,0000;65535,0000;14738,0000;1587,0000;0,0000;0,0000;0,0000;
397;1365,34;7324,19;2072,09;22990,0000;65535,0000;24767,0000;1777,0000;0,0000;0,0000;0,0000;
398;1366,16;7319,77;2076,52;18564,0000;65535,0000;20353,0000;1789,0000;0,0000;0,0000;0,0000;
399;1366,99;7315,36;2080,93;19665,0000;65535,0000;21258,0000;1593,0000;0,0000;0,0000;0,0000;
400;1367,81;7310,94;2085,35;18326,0000;65535,0000;19871,0000;1545,0000;0,0000;0,0000;0,0000;
401;1368,64;7306,54;2089,75;11318,0000;65535,0000;12857,0000;1539,0000;0,0000;0,0000;0,0000;
402;1369,46;7302,13;2094,16;19840,0000;65535,0000;21249,0000;1409,0000;0,0000;0,0000;0,0000;
403;1370,29;7297,74;2098,55;10795,0000;65535,0000;12229,0000;1434,0000;0,0000;0,0000;0,0000;
404;1371,11;7293,34;2102,95;1821,0000;65535,0000;3210,0000;1389,0000;0,0000;0,0000;0,0000;
405;1371,94;7288,95;2107,33;15970,0000;65535,0000;17400,0000;1430,0000;0,0000;0,0000;0,0000;
406;1372,76;7284,57;2111,72;16808,0000;65535,0000;18139,0000;1331,0000;0,0000;0,0000;0,0000;
407;1373,59;7280,19;2116,10;9873,0000;65535,0000;11244,0000;1371,0000;0,0000;0,0000;0,0000;
408;1374,42;7275,82;2120,47;5542,0000;65535,0000;6681,0000;1139,0000;0,0000;0,0000;0,0000;
409;1375,24;7271,45;2124,84;26395,0000;65535,0000;27530,0000;1135,0000;0,0000;0,0000;0,0000;
410;1376,07;7267,08;2129,20;13673,0000;65535,0000;14779,0000;1106,0000;0,0000;0,0000;0,0000;
411;1376,89;7262,72;2133,56;13408,0000;65535,0000;14263,0000;855,0000;0,0000;0,0000;0,0000;
412;1377,72;7258,37;2137,92;20765,0000;65535,0000;21479,0000;714,0000;0,0000;0,0000;0,0000;
413;1378,55;7254,02;2142,27;16705,0000;65535,0000;17430,0000;725,0000;0,0000;0,0000;0,0000;
414;1379,37;7249,67;2146,61;15904,0000;65535,0000;16593,0000;689,0000;0,0000;0,0000;0,0000;
415;1380,20;7245,33;2150,95;20184,0000;65535,0000;20837,0000;653,0000;0,0000;0,0000;0,0000;
416;1381,03;7241,00;2155,29;19627,0000;65535,0000;20091,0000;464,0000;0,0000;0,0000;0,0000;
417;1381,85;7236,67;2159,62;12773,0000;65535,0000;13359,0000;586,0000;0,0000;0,0000;0,0000;
418;1382,68;7232,34;2163,95;12408,0000;65535,0000;12760,0000;352,0000;0,0000;0,0000;0,0000;
419;1383,51;7228,02;2168,27;20224,0000;65535,0000;20817,0000;593,0000;0,0000;0,0000;0,0000;
420;1384,33;7223,70;2172,59;16987,0000;65535,0000;17525,0000;538,0000;0,0000;0,0000;0,0000;
421;1385,16;7219,39;2176,90;3003,0000;65535,0000;3209,0000;206,0000;0,0000;0,0000;0,0000;
422;1385,99;7215,08;2181,21;12468,0000;65535,0000;12757,0000;289,0000;0,0000;0,0000;0,0000;
423;1386,81;7210,78;2185,51;15484,0000;65535,0000;15605,0000;121,0000;0,0000;0,0000;0,0000;
424;1387,64;7206,48;2189,81;11919,0000;65535,0000;11989,0000;70,0000;0,0000;0,0000;0,0000;
425;1388,47;7202,18;2194,10;7958,0000;65535,0000;8113,0000;155,0000;0,0000;0,0000;0,0000;
426;1389,30;7197,89;2198,39;23556,0000;65535,0000;23384,0000;-172,0000;0,0000;0,0000;0,0000;
427;1390,12;7193,61;2202,68;24497,0000;65535,0000;24425,0000;-72,0000;0,0000;0,0000;0,0000;
428;1390,95;7189,33;2206,96;17733,0000;65535,0000;17880,0000;147,0000;0,0000;0,0000;0,0000;
429;1391,78;7185,05;2211,23;19544,0000;65535,0000;19620,0000;76,0000;0,0000;0,0000;0,0000;
430;1392,61;7180,78;2215,51;14733,0000;65535,0000;14577,0000;-156,0000;0,0000;0,0000;0,0000;
431;1393,43;7176,52;2219,77;15457,0000;65535,0000;15354,0000;-103,0000;0,0000;0,0000;0,0000;
432;1394,26;7172,25;2224,03;13235,0000;65535,0000;13188,0000;-47,0000;0,0000;0,0000;0,0000;
433;1395,09;7168,00;2228,29;19416,0000;65535,0000;19292,0000;-124,0000;0,0000;0,0000;0,0000;
434;1395,92;7163,74;2232,54;22897,0000;65535,0000;22858,0000;-39,0000;0,0000;0,0000;0,0000;
435;1396,75;7159,50;2236,79;14912,0000;65535,0000;14609,0000;-303,0000;0,0000;0,0000;0,0000;
436;1397,57;7155,25;2241,04;17369,0000;65535,0000;17141,0000;-228,0000;0,0000;0,0000;0,0000;
437;1398,40;7151,01;2245,28;16968,0000;65535,0000;16800,0000;-168,0000;0,0000;0,0000;0,0000;
438;1399,23;7146,78;2249,51;20879,0000;65535,0000;20825,0000;-54,0000;0,0000;0,0000;0,0000;
439;1400,06;7142,55;2253,74;17492,0000;65535,0000;17132,0000;-360,0000;0,0000;0,0000;0,0000;
440;1400,89;7138,32;2257,97;13084,0000;65535,0000;12976,0000;-108,0000;0,0000;0,0000;0,0000;
441;1401,72;7134,10;2262,19;9687,0000;65535,0000;9410,0000;-277,0000;0,0000;0,0000;0,0000;
442;1402,55;7129,89;2266,40;23760,0000;65535,0000;23554,0000;-206,0000;0,0000;0,0000;0,0000;
443;1403,38;7125,67;2270,61;18863,0000;65535,0000;18730,0000;-133,0000;0,0000;0,0000;0,0000;
444;1404,21;7121,47;2274,82;22397,0000;65535,0000;22188,0000;-209,0000;0,0000;0,0000;0,0000;
445;1405,03;7117,26;2279,03;13912,0000;65535,0000;13694,0000;-218,0000;0,0000;0,0000;0,0000;
446;1405,86;7113,06;2283,22;21123,0000;65535,0000;20883,0000;-240,0000;0,0000;0,0000;0,0000;
447;1406,69;7108,87;2287,42;12133,0000;65535,0000;12026,0000;-107,0000;0,0000;0,0000;0,0000;
448;1407,52;7104,68;2291,61;11336,0000;65535,0000;11064,0000;-272,0000;0,0000;0,0000;0,0000;
449;1408,35;7100,50;2295,79;16333,0000;65535,0000;16109,0000;-224,0000;0,0000;0,0000;0,0000;
450;1409,18;7096,31;2299,97;18169,0000;65535,0000;17806,0000;-363,0000;0,0000;0,0000;0,0000;
451;1410,01;7092,14;2304,15;9985,0000;65535,0000;9818,0000;-167,0000;0,0000;0,0000;0,0000;
452;1410,84;7087,97;2308,32;20815,0000;65535,0000;20755,0000;-60,0000;0,0000;0,0000;0,0000;
453;1411,67;7083,80;2312,49;14569,0000;65535,0000;14489,0000;-80,0000;0,0000;0,0000;0,0000;
454;1412,50;7079,64;2316,65;14886,0000;65535,0000;14661,0000;-225,0000;0,0000;0,0000;0,0000;
455;1413,33;7075,48;2320,81;19555,0000;65535,0000;19369,0000;-186,0000;0,0000;0,0000;0,0000;
456;1414,16;7071,32;2324,97;13348,0000;65535,0000;13216,0000;-132,0000;0,0000;0,0000;0,0000;
457;1414,99;7067,17;2329,12;15210,0000;65535,0000;14988,0000;-222,0000;0,0000;0,0000;0,0000;
458;1415,82;7063,03;2333,26;17365,0000;65535,0000;16040,0000;-1325,0000;0,0000;0,0000;0,0000;
459;1416,65;7058,89;2337,40;26309,0000;65535,0000;25850,0000;-459,0000;0,0000;0,0000;0,0000;
460;1417,48;7054,75;2341,54;19344,0000;65535,0000;19055,0000;-289,0000;0,0000;0,0000;0,0000;
461;1418,32;7050,62;2345,67;13403,0000;65535,0000;13143,0000;-260,0000;0,0000;0,0000;0,0000;
462;1419,15;7046,49;2349,80;14941,0000;65535,0000;14872,0000;-69,0000;0,0000;0,0000;0,0000;
463;1419,98;7042,37;2353,92;21912,0000;65535,0000;21756,0000;-156,0000;0,0000;0,0000;0,0000;
464;1420,81;7038,25;2358,04;20584,0000;65535,0000;20693,0000;109,0000;0,0000;0,0000;0,0000;
465;1421,64;7034,13;2362,16;17920,0000;65535,0000;17558,0000;-362,0000;0,0000;0,0000;0,0000;
466;1422,47;7030,02;2366,27;20609,0000;65535,0000;20478,0000;-131,0000;0,0000;0,0000;0,0000;
467;1423,30;7025,91;2370,37;21483,0000;65535,0000;21304,0000;-179,0000;0,0000;0,0000;0,0000;
468;1424,13;7021,81;2374,48;19156,0000;65535,0000;18971,0000;-185,0000;0,0000;0,0000;0,0000;
469;1424,97;7017,71;2378,57;13596,0000;65535,0000;13471,0000;-125,0000;0,0000;0,0000;0,0000;
470;1425,80;7013,62;2382,67;12286,0000;65535,0000;12080,0000;-206,0000;0,0000;0,0000;0,0000;
471;1426,63;7009,53;2386,76;13442,0000;65535,0000;13106,0000;-336,0000;0,0000;0,0000;0,0000;
472;1427,46;7005,45;2390,84;18727,0000;65535,0000;18556,0000;-171,0000;0,0000;0,0000;0,0000;
473;1428,29;7001,37;2394,92;8940,0000;65535,0000;8706,0000;-234,0000;0,0000;0,0000;0,0000;
474;1429,12;6997,29;2399,00;19563,0000;65535,0000;19364,0000;-199,0000;0,0000;0,0000;0,0000;
475;1429,96;6993,22;2403,07;13778,0000;65535,0000;13654,0000;-124,0000;0,0000;0,0000;0,0000;
476;1430,79;6989,15;2407,14;16709,0000;65535,0000;16475,0000;-234,0000;0,0000;0,0000;0,0000;
477;1431,62;6985,08;2411,20;14744,0000;65535,0000;14601,0000;-143,0000;0,0000;0,0000;0,0000;
478;1432,45;6981,03;2415,26;11217,0000;65535,0000;11173,0000;-44,0000;0,0000;0,0000;0,0000;
479;1433,29;6976,97;2419,32;19150,0000;65535,0000;19069,0000;-81,0000;0,0000;0,0000;0,0000;
480;1434,12;6972,92;2423,37;11888,0000;65535,0000;11863,0000;-25,0000;0,0000;0,0000;0,0000;
481;1434,95;6968,87;2427,42;10691,0000;65535,0000;10482,0000;-209,0000;0,0000;0,0000;0,0000;
482;1435,79;6964,83;2431,46;13780,0000;65535,0000;13509,0000;-271,0000;0,0000;0,0000;0,0000;
483;1436,62;6960,79;2435,50;15609,0000;65535,0000;15294,0000;-315,0000;0,0000;0,0000;0,0000;
484;1437,45;6956,76;2439,53;18510,0000;65535,0000;18308,0000;-202,0000;0,0000;0,0000;0,0000;
485;1438,28;6952,73;2443,56;20719,0000;65535,0000;20465,0000;-254,0000;0,0000;0,0000;0,0000;
486;1439,12;6948,70;2447,59;14462,0000;65535,0000;14141,0000;-321,0000;0,0000;0,0000;0,0000;
487;1439,95;6944,68;2451,61;10055,0000;65535,0000;9978,0000;-77,0000;0,0000;0,0000;0,0000;
488;1440,78;6940,66;2455,63;12820,0000;65535,0000;12737,0000;-83,0000;0,0000;0,0000;0,0000;
489;1441,62;6936,65;2459,64;19343,0000;65535,0000;19369,0000;26,0000;0,0000;0,0000;0,0000;
490;1442,45;6932,64;2463,65;10243,0000;65535,0000;10141,0000;-102,0000;0,0000;0,0000;0,0000;
491;1443,29;6928,63;2467,65;8418,0000;65535,0000;8278,0000;-140,0000;0,0000;0,0000;0,0000;
492;1444,12;6924,63;2471,65;14472,0000;65535,0000;14359,0000;-113,0000;0,0000;0,0000;0,0000;
493;1444,95;6920,64;2475,65;19843,0000;65535,0000;19653,0000;-190,0000;0,0000;0,0000;0,0000;
494;1445,79;6916,64;2479,64;29136,0000;65535,0000;28694,0000;-442,0000;0,0000;0,0000;0,0000;
495;1446,62;6912,66;2483,63;14511,0000;65535,0000;14327,0000;-184,0000;0,0000;0,0000;0,0000;
496;1447,46;6908,67;2487,62;16211,0000;65535,0000;16136,0000;-75,0000;0,0000;0,0000;0,0000;
497;1448,29;6904,69;2491,60;14747,0000;65535,0000;14621,0000;-126,0000;0,0000;0,0000;0,0000;
498;1449,13;6900,72;2495,57;20868,0000;65535,0000;20765,0000;-103,0000;0,0000;0,0000;0,0000;
499;1449,96;6896,74;2499,55;16314,0000;65535,0000;16213,0000;-101,0000;0,0000;0,0000;0,0000;
500;1450,79;6892,78;2503,51;7530,0000;65535,0000;7249,0000;-281,0000;0,0000;0,0000;0,0000;
501;   ;   ;   ;15250,0000;65535,0000;14971,0000;-279,0000;0,0000;0,0000;0,0000;
502;   ;   ;   ;3960,0000;65535,0000;3867,0000;-93,0000;0,0000;0,0000;0,0000;
503;   ;   ;   ;17423,0000;65535,0000;17210,0000;-213,0000;0,0000;0,0000;0,0000;
504;   ;   ;   ;14926,0000;65535,0000;14788,0000;-138,0000;0,0000;0,0000;0,0000;
505;   ;   ;   ;14915,0000;65535,0000;14521,0000;-394,0000;0,0000;0,0000;0,0000;
506;   ;   ;   ;11081,0000;65535,0000;10952,0000;-129,0000;0,0000;0,0000;0,0000;
507;   ;   ;   ;13188,0000;65535,0000;13081,0000;-107,0000;0,0000;0,0000;0,0000;
508;   ;   ;   ;21262,0000;65535,0000;21342,0000;80,0000;0,0000;0,0000;0,0000;
509;   ;   ;   ;16867,0000;65535,0000;16836,0000;-31,0000;0,0000;0,0000;0,0000;
510;   ;   ;   ;16534,0000;65535,0000;16498,0000;-36,0000;0,0000;0,0000;0,0000;
511;   ;   ;   ;13271,0000;65535,0000;13253,0000;-18,0000;0,0000;0,0000;0,0000;
