File Version;BWSpec4.04_00
Date;2018-11-07 14:21:58
title;BWS485-1064S-05
model;BTC264P-1064S-512-SYS
c code;RSM
operator;
port1;0
baud1;3
pixel_start;0
pixel_end;511
step;1
units;3
bkcolor;16777215
show_mode;3
data_mode;0
pixel_mode;0
intigration times(ms);200000
average number;1
time_multiply;1
spectrometer_type ;69
yaxis;1
yaxis_min;-1000
yaxis_max;133763,4206
xaxis;1
xaxis_min;18
xaxis_max;500
irrands_DispWLMin;100
irrands_DispWLMax;1000
yaxis_min_6;0
yaxis_max_6;0
irradiance_unit;0
Color_Data_Flag;0
Color_StartWL;1045
Color_EndWL;1045
Color_IncWL;10
power_unit_index;3
photometric_index;0
Illuminant_index;3
observer_index;0
lab_l;0
lab_a;0
lab_b;0
radiometric_flag;0
coefs_a0;1044,03602248762
coefs_a1;0,796605095802619
coefs_a2;2,51584898174088E-05
coefs_a3;1,73301952725862E-08
coefs_b0;-1330,35470489011
coefs_b1;1,25807542211567
coefs_b2;4,89615015007835E-05
coefs_b3;-3,20656583957859E-08
coefs_r0;1
coefs_r1;0
coefs_r2;0
coefs_r3;0
coefs_j0;1
coefs_j1;0
coefs_j2;0
coefs_j3;0
enable_coefs_r;0
all_data_save;1
select_option;-1
interval_time;200000
pixel_num;512
sel_pixel_start;1
sel_pixel_end;511
sel_pixel_delta;1
dark_compensate;0
dark_compensate_value_1;0
dark_compensate_value_2;0
dark_compensate_value_3;0
monitor pixel_0;0
monitor pixel_1;0
monitor pixel_2;0
monitor pixel_3;0
monitor pixel_4;0
monitor pixel_5;0
vertical_select_flag;0
vertical_line3;44
vertical_line4;44
vertical_line3_wv;349,610890369397
vertical_line4_wv;349,610890369397
vertical_line_flag;0
vertical_line_ratio;0
laser_wavelength;1064,25
laser_powerlevel;100
overlay_js;0
Relative Intensity Correction Flag;0
Pixel;Wavelength;Wavenumber;Raman Shift;Dark;Reference;Raw data #1;Dark Subtracted #1;%TR #1;Absorbance #1;Irradiance (lumen) #1;
0;   ;   ;   ;9878,0000;65535,0000;16448,0000;6570,0000;0,0000;0,0000;0,0000;
1;   ;   ;   ;16785,0000;65535,0000;16550,0000;-235,0000;0,0000;0,0000;0,0000;
2;   ;   ;   ;14347,0000;65535,0000;14098,0000;-249,0000;0,0000;0,0000;0,0000;
3;   ;   ;   ;19970,0000;65535,0000;19718,0000;-252,0000;0,0000;0,0000;0,0000;
4;   ;   ;   ;22837,0000;65535,0000;22706,0000;-131,0000;0,0000;0,0000;0,0000;
5;   ;   ;   ;17159,0000;65535,0000;17037,0000;-122,0000;0,0000;0,0000;0,0000;
6;   ;   ;   ;11677,0000;65535,0000;11351,0000;-326,0000;0,0000;0,0000;0,0000;
7;   ;   ;   ;7766,0000;65535,0000;7544,0000;-222,0000;0,0000;0,0000;0,0000;
8;   ;   ;   ;10392,0000;65535,0000;10360,0000;-32,0000;0,0000;0,0000;0,0000;
9;   ;   ;   ;8115,0000;65535,0000;8109,0000;-6,0000;0,0000;0,0000;0,0000;
10;   ;   ;   ;12709,0000;65535,0000;12574,0000;-135,0000;0,0000;0,0000;0,0000;
11;   ;   ;   ;16855,0000;65535,0000;16829,0000;-26,0000;0,0000;0,0000;0,0000;
12;   ;   ;   ;11934,0000;65535,0000;11873,0000;-61,0000;0,0000;0,0000;0,0000;
13;   ;   ;   ;20803,0000;65535,0000;20727,0000;-76,0000;0,0000;0,0000;0,0000;
14;   ;   ;   ;13613,0000;65535,0000;13719,0000;106,0000;0,0000;0,0000;0,0000;
15;   ;   ;   ;17313,0000;65535,0000;17450,0000;137,0000;0,0000;0,0000;0,0000;
16;   ;   ;   ;20432,0000;65535,0000;20720,0000;288,0000;0,0000;0,0000;0,0000;
17;   ;   ;   ;8355,0000;65535,0000;8813,0000;458,0000;0,0000;0,0000;0,0000;
18;1058,38;9448,37;-52,09;26601,0000;65535,0000;27205,0000;604,0000;0,0000;0,0000;0,0000;
19;1059,18;9441,26;-44,97;15677,0000;65535,0000;16602,0000;925,0000;0,0000;0,0000;0,0000;
20;1059,98;9434,16;-37,87;25001,0000;65535,0000;26251,0000;1250,0000;0,0000;0,0000;0,0000;
21;1060,78;9427,06;-30,77;6574,0000;65535,0000;8661,0000;2087,0000;0,0000;0,0000;0,0000;
22;1061,57;9419,98;-23,69;14548,0000;65535,0000;17888,0000;3340,0000;0,0000;0,0000;0,0000;
23;1062,37;9412,90;-16,62;12394,0000;65535,0000;21540,0000;9146,0000;0,0000;0,0000;0,0000;
24;1063,17;9405,84;-9,55;16776,0000;65535,0000;65535,0000;48759,0000;0,0000;0,0000;0,0000;
25;1063,97;9398,79;-2,50;25669,0000;65535,0000;65535,0000;39866,0000;0,0000;0,0000;0,0000;
26;1064,77;9391,74;4,55;8141,0000;65535,0000;65535,0000;57394,0000;0,0000;0,0000;0,0000;
27;1065,56;9384,71;11,58;20401,0000;65535,0000;57584,0000;37183,0000;0,0000;0,0000;0,0000;
28;1066,36;9377,69;18,60;16007,0000;65535,0000;52883,0000;36876,0000;0,0000;0,0000;0,0000;
29;1067,16;9370,67;25,61;18434,0000;65535,0000;65535,0000;47101,0000;0,0000;0,0000;0,0000;
30;1067,96;9363,67;32,62;1856,0000;65535,0000;65535,0000;63679,0000;0,0000;0,0000;0,0000;
31;1068,76;9356,68;39,61;27248,0000;65535,0000;65535,0000;38287,0000;0,0000;0,0000;0,0000;
32;1069,55;9349,69;46,59;11980,0000;65535,0000;65535,0000;53555,0000;0,0000;0,0000;0,0000;
33;1070,35;9342,72;53,57;17354,0000;65535,0000;65535,0000;48181,0000;0,0000;0,0000;0,0000;
34;1071,15;9335,76;60,53;19106,0000;65535,0000;65535,0000;46429,0000;0,0000;0,0000;0,0000;
35;1071,95;9328,80;67,48;11681,0000;65535,0000;65535,0000;53854,0000;0,0000;0,0000;0,0000;
36;1072,75;9321,86;74,43;20696,0000;65535,0000;65535,0000;44839,0000;0,0000;0,0000;0,0000;
37;1073,55;9314,93;81,36;12361,0000;65535,0000;65535,0000;53174,0000;0,0000;0,0000;0,0000;
38;1074,34;9308,00;88,29;20752,0000;65535,0000;65535,0000;44783,0000;0,0000;0,0000;0,0000;
39;1075,14;9301,09;95,20;15161,0000;65535,0000;65535,0000;50374,0000;0,0000;0,0000;0,0000;
40;1075,94;9294,18;102,10;13597,0000;65535,0000;65535,0000;51938,0000;0,0000;0,0000;0,0000;
41;1076,74;9287,29;109,00;12104,0000;65535,0000;65535,0000;53431,0000;0,0000;0,0000;0,0000;
42;1077,54;9280,41;115,88;15243,0000;65535,0000;65535,0000;50292,0000;0,0000;0,0000;0,0000;
43;1078,34;9273,53;122,76;14995,0000;65535,0000;65535,0000;50540,0000;0,0000;0,0000;0,0000;
44;1079,14;9266,67;129,62;14785,0000;65535,0000;65535,0000;50750,0000;0,0000;0,0000;0,0000;
45;1079,94;9259,81;136,48;15718,0000;65535,0000;65535,0000;49817,0000;0,0000;0,0000;0,0000;
46;1080,73;9252,96;143,32;14009,0000;65535,0000;62265,0000;48256,0000;0,0000;0,0000;0,0000;
47;1081,53;9246,13;150,16;14511,0000;65535,0000;60657,0000;46146,0000;0,0000;0,0000;0,0000;
48;1082,33;9239,30;156,99;21980,0000;65535,0000;65535,0000;43555,0000;0,0000;0,0000;0,0000;
49;1083,13;9232,48;163,80;7092,0000;65535,0000;50133,0000;43041,0000;0,0000;0,0000;0,0000;
50;1083,93;9225,68;170,61;16305,0000;65535,0000;58329,0000;42024,0000;0,0000;0,0000;0,0000;
51;1084,73;9218,88;177,41;9085,0000;65535,0000;48994,0000;39909,0000;0,0000;0,0000;0,0000;
52;1085,53;9212,09;184,20;11854,0000;65535,0000;49971,0000;38117,0000;0,0000;0,0000;0,0000;
53;1086,33;9205,31;190,98;15300,0000;65535,0000;51344,0000;36044,0000;0,0000;0,0000;0,0000;
54;1087,13;9198,54;197,75;17822,0000;65535,0000;51676,0000;33854,0000;0,0000;0,0000;0,0000;
55;1087,93;9191,78;204,51;18333,0000;65535,0000;49867,0000;31534,0000;0,0000;0,0000;0,0000;
56;1088,73;9185,03;211,26;10305,0000;65535,0000;40030,0000;29725,0000;0,0000;0,0000;0,0000;
57;1089,53;9178,29;218,00;20103,0000;65535,0000;47561,0000;27458,0000;0,0000;0,0000;0,0000;
58;1090,33;9171,56;224,73;16215,0000;65535,0000;42240,0000;26025,0000;0,0000;0,0000;0,0000;
59;1091,13;9164,84;231,45;10694,0000;65535,0000;35171,0000;24477,0000;0,0000;0,0000;0,0000;
60;1091,93;9158,12;238,16;15332,0000;65535,0000;38546,0000;23214,0000;0,0000;0,0000;0,0000;
61;1092,73;9151,42;244,87;16304,0000;65535,0000;37972,0000;21668,0000;0,0000;0,0000;0,0000;
62;1093,53;9144,73;251,56;14934,0000;65535,0000;35910,0000;20976,0000;0,0000;0,0000;0,0000;
63;1094,33;9138,04;258,25;20481,0000;65535,0000;40317,0000;19836,0000;0,0000;0,0000;0,0000;
64;1095,13;9131,37;264,92;7690,0000;65535,0000;26526,0000;18836,0000;0,0000;0,0000;0,0000;
65;1095,93;9124,70;271,59;9494,0000;65535,0000;27259,0000;17765,0000;0,0000;0,0000;0,0000;
66;1096,73;9118,04;278,25;10013,0000;65535,0000;27302,0000;17289,0000;0,0000;0,0000;0,0000;
67;1097,53;9111,40;284,89;22702,0000;65535,0000;38864,0000;16162,0000;0,0000;0,0000;0,0000;
68;1098,33;9104,76;291,53;17220,0000;65535,0000;32833,0000;15613,0000;0,0000;0,0000;0,0000;
69;1099,13;9098,13;298,16;12494,0000;65535,0000;27717,0000;15223,0000;0,0000;0,0000;0,0000;
70;1099,93;9091,51;304,78;16075,0000;65535,0000;30898,0000;14823,0000;0,0000;0,0000;0,0000;
71;1100,73;9084,90;311,39;16223,0000;65535,0000;30705,0000;14482,0000;0,0000;0,0000;0,0000;
72;1101,53;9078,29;317,99;8958,0000;65535,0000;23361,0000;14403,0000;0,0000;0,0000;0,0000;
73;1102,33;9071,70;324,59;18818,0000;65535,0000;32856,0000;14038,0000;0,0000;0,0000;0,0000;
74;1103,13;9065,12;331,17;21771,0000;65535,0000;36069,0000;14298,0000;0,0000;0,0000;0,0000;
75;1103,93;9058,54;337,74;14741,0000;65535,0000;28652,0000;13911,0000;0,0000;0,0000;0,0000;
76;1104,73;9051,98;344,31;14416,0000;65535,0000;28303,0000;13887,0000;0,0000;0,0000;0,0000;
77;1105,53;9045,42;350,87;17649,0000;65535,0000;31331,0000;13682,0000;0,0000;0,0000;0,0000;
78;1106,33;9038,87;357,41;20091,0000;65535,0000;33787,0000;13696,0000;0,0000;0,0000;0,0000;
79;1107,13;9032,34;363,95;28094,0000;65535,0000;41637,0000;13543,0000;0,0000;0,0000;0,0000;
80;1107,93;9025,81;370,48;29321,0000;65535,0000;42817,0000;13496,0000;0,0000;0,0000;0,0000;
81;1108,74;9019,29;377,00;13842,0000;65535,0000;27215,0000;13373,0000;0,0000;0,0000;0,0000;
82;1109,54;9012,77;383,51;13018,0000;65535,0000;26432,0000;13414,0000;0,0000;0,0000;0,0000;
83;1110,34;9006,27;390,02;11636,0000;65535,0000;24796,0000;13160,0000;0,0000;0,0000;0,0000;
84;1111,14;8999,78;396,51;21983,0000;65535,0000;35245,0000;13262,0000;0,0000;0,0000;0,0000;
85;1111,94;8993,29;403,00;18131,0000;65535,0000;31059,0000;12928,0000;0,0000;0,0000;0,0000;
86;1112,74;8986,82;409,47;19743,0000;65535,0000;32532,0000;12789,0000;0,0000;0,0000;0,0000;
87;1113,54;8980,35;415,94;19702,0000;65535,0000;32597,0000;12895,0000;0,0000;0,0000;0,0000;
88;1114,34;8973,89;422,40;16828,0000;65535,0000;29753,0000;12925,0000;0,0000;0,0000;0,0000;
89;1115,15;8967,44;428,85;15366,0000;65535,0000;27980,0000;12614,0000;0,0000;0,0000;0,0000;
90;1115,95;8961,00;435,29;20837,0000;65535,0000;33488,0000;12651,0000;0,0000;0,0000;0,0000;
91;1116,75;8954,57;441,72;20417,0000;65535,0000;32964,0000;12547,0000;0,0000;0,0000;0,0000;
92;1117,55;8948,14;448,14;13975,0000;65535,0000;26435,0000;12460,0000;0,0000;0,0000;0,0000;
93;1118,35;8941,73;454,56;15847,0000;65535,0000;28185,0000;12338,0000;0,0000;0,0000;0,0000;
94;1119,15;8935,32;460,96;17719,0000;65535,0000;29935,0000;12216,0000;0,0000;0,0000;0,0000;
95;1119,96;8928,93;467,36;8439,0000;65535,0000;20496,0000;12057,0000;0,0000;0,0000;0,0000;
96;1120,76;8922,54;473,75;10830,0000;65535,0000;22578,0000;11748,0000;0,0000;0,0000;0,0000;
97;1121,56;8916,16;480,13;20120,0000;65535,0000;31874,0000;11754,0000;0,0000;0,0000;0,0000;
98;1122,36;8909,79;486,50;16139,0000;65535,0000;27982,0000;11843,0000;0,0000;0,0000;0,0000;
99;1123,16;8903,42;492,86;16397,0000;65535,0000;28092,0000;11695,0000;0,0000;0,0000;0,0000;
100;1123,97;8897,07;499,22;16044,0000;65535,0000;27690,0000;11646,0000;0,0000;0,0000;0,0000;
101;1124,77;8890,73;505,56;17887,0000;65535,0000;29424,0000;11537,0000;0,0000;0,0000;0,0000;
102;1125,57;8884,39;511,90;11706,0000;65535,0000;23359,0000;11653,0000;0,0000;0,0000;0,0000;
103;1126,37;8878,06;518,23;18150,0000;65535,0000;29666,0000;11516,0000;0,0000;0,0000;0,0000;
104;1127,17;8871,74;524,55;19936,0000;65535,0000;31545,0000;11609,0000;0,0000;0,0000;0,0000;
105;1127,98;8865,43;530,86;17223,0000;65535,0000;28399,0000;11176,0000;0,0000;0,0000;0,0000;
106;1128,78;8859,13;537,16;9722,0000;65535,0000;20974,0000;11252,0000;0,0000;0,0000;0,0000;
107;1129,58;8852,83;543,46;9918,0000;65535,0000;20636,0000;10718,0000;0,0000;0,0000;0,0000;
108;1130,38;8846,55;549,74;19617,0000;65535,0000;30133,0000;10516,0000;0,0000;0,0000;0,0000;
109;1131,19;8840,27;556,02;19885,0000;65535,0000;30218,0000;10333,0000;0,0000;0,0000;0,0000;
110;1131,99;8834,00;562,29;16422,0000;65535,0000;26424,0000;10002,0000;0,0000;0,0000;0,0000;
111;1132,79;8827,74;568,55;21132,0000;65535,0000;31144,0000;10012,0000;0,0000;0,0000;0,0000;
112;1133,60;8821,49;574,80;15984,0000;65535,0000;26079,0000;10095,0000;0,0000;0,0000;0,0000;
113;1134,40;8815,24;581,05;21248,0000;65535,0000;31011,0000;9763,0000;0,0000;0,0000;0,0000;
114;1135,20;8809,01;587,28;20933,0000;65535,0000;30559,0000;9626,0000;0,0000;0,0000;0,0000;
115;1136,00;8802,78;593,51;20195,0000;65535,0000;29525,0000;9330,0000;0,0000;0,0000;0,0000;
116;1136,81;8796,56;599,73;6923,0000;65535,0000;16493,0000;9570,0000;0,0000;0,0000;0,0000;
117;1137,61;8790,35;605,94;17436,0000;65535,0000;26448,0000;9012,0000;0,0000;0,0000;0,0000;
118;1138,41;8784,15;612,14;14363,0000;65535,0000;23494,0000;9131,0000;0,0000;0,0000;0,0000;
119;1139,22;8777,96;618,33;23524,0000;65535,0000;32382,0000;8858,0000;0,0000;0,0000;0,0000;
120;1140,02;8771,77;624,52;20340,0000;65535,0000;29022,0000;8682,0000;0,0000;0,0000;0,0000;
121;1140,82;8765,59;630,70;10357,0000;65535,0000;18894,0000;8537,0000;0,0000;0,0000;0,0000;
122;1141,63;8759,42;636,87;14173,0000;65535,0000;22694,0000;8521,0000;0,0000;0,0000;0,0000;
123;1142,43;8753,26;643,03;9564,0000;65535,0000;17688,0000;8124,0000;0,0000;0,0000;0,0000;
124;1143,23;8747,11;649,18;22336,0000;65535,0000;30294,0000;7958,0000;0,0000;0,0000;0,0000;
125;1144,04;8740,96;655,32;21811,0000;65535,0000;29711,0000;7900,0000;0,0000;0,0000;0,0000;
126;1144,84;8734,83;661,46;25057,0000;65535,0000;32697,0000;7640,0000;0,0000;0,0000;0,0000;
127;1145,65;8728,70;667,59;15915,0000;65535,0000;23427,0000;7512,0000;0,0000;0,0000;0,0000;
128;1146,45;8722,58;673,71;21159,0000;65535,0000;28604,0000;7445,0000;0,0000;0,0000;0,0000;
129;1147,25;8716,47;679,82;15582,0000;65535,0000;22906,0000;7324,0000;0,0000;0,0000;0,0000;
130;1148,06;8710,36;685,93;11304,0000;65535,0000;18656,0000;7352,0000;0,0000;0,0000;0,0000;
131;1148,86;8704,27;692,02;18104,0000;65535,0000;25483,0000;7379,0000;0,0000;0,0000;0,0000;
132;1149,67;8698,18;698,11;10930,0000;65535,0000;17859,0000;6929,0000;0,0000;0,0000;0,0000;
133;1150,47;8692,10;704,19;10615,0000;65535,0000;17839,0000;7224,0000;0,0000;0,0000;0,0000;
134;1151,27;8686,03;710,26;18667,0000;65535,0000;25599,0000;6932,0000;0,0000;0,0000;0,0000;
135;1152,08;8679,96;716,33;12735,0000;65535,0000;19588,0000;6853,0000;0,0000;0,0000;0,0000;
136;1152,88;8673,91;722,38;16558,0000;65535,0000;23331,0000;6773,0000;0,0000;0,0000;0,0000;
137;1153,69;8667,86;728,43;13161,0000;65535,0000;19677,0000;6516,0000;0,0000;0,0000;0,0000;
138;1154,49;8661,82;734,47;11130,0000;65535,0000;17703,0000;6573,0000;0,0000;0,0000;0,0000;
139;1155,30;8655,78;740,50;19817,0000;65535,0000;26321,0000;6504,0000;0,0000;0,0000;0,0000;
140;1156,10;8649,76;746,53;15489,0000;65535,0000;21937,0000;6448,0000;0,0000;0,0000;0,0000;
141;1156,91;8643,74;752,54;11134,0000;65535,0000;17373,0000;6239,0000;0,0000;0,0000;0,0000;
142;1157,71;8637,74;758,55;9843,0000;65535,0000;16062,0000;6219,0000;0,0000;0,0000;0,0000;
143;1158,52;8631,73;764,55;12426,0000;65535,0000;18562,0000;6136,0000;0,0000;0,0000;0,0000;
144;1159,32;8625,74;770,55;16692,0000;65535,0000;23167,0000;6475,0000;0,0000;0,0000;0,0000;
145;1160,13;8619,76;776,53;17923,0000;65535,0000;24168,0000;6245,0000;0,0000;0,0000;0,0000;
146;1160,93;8613,78;782,51;20800,0000;65535,0000;26818,0000;6018,0000;0,0000;0,0000;0,0000;
147;1161,74;8607,81;788,48;14353,0000;65535,0000;20366,0000;6013,0000;0,0000;0,0000;0,0000;
148;1162,54;8601,85;794,44;17829,0000;65535,0000;23693,0000;5864,0000;0,0000;0,0000;0,0000;
149;1163,35;8595,89;800,39;16913,0000;65535,0000;22782,0000;5869,0000;0,0000;0,0000;0,0000;
150;1164,15;8589,95;806,34;8813,0000;65535,0000;14834,0000;6021,0000;0,0000;0,0000;0,0000;
151;1164,96;8584,01;812,28;20302,0000;65535,0000;26148,0000;5846,0000;0,0000;0,0000;0,0000;
152;1165,76;8578,08;818,21;15294,0000;65535,0000;20871,0000;5577,0000;0,0000;0,0000;0,0000;
153;1166,57;8572,16;824,13;18304,0000;65535,0000;23841,0000;5537,0000;0,0000;0,0000;0,0000;
154;1167,37;8566,24;830,05;10198,0000;65535,0000;15845,0000;5647,0000;0,0000;0,0000;0,0000;
155;1168,18;8560,33;835,95;17836,0000;65535,0000;23410,0000;5574,0000;0,0000;0,0000;0,0000;
156;1168,98;8554,43;841,85;15285,0000;65535,0000;20999,0000;5714,0000;0,0000;0,0000;0,0000;
157;1169,79;8548,54;847,75;20432,0000;65535,0000;26021,0000;5589,0000;0,0000;0,0000;0,0000;
158;1170,60;8542,66;853,63;16536,0000;65535,0000;22033,0000;5497,0000;0,0000;0,0000;0,0000;
159;1171,40;8536,78;859,51;11667,0000;65535,0000;17180,0000;5513,0000;0,0000;0,0000;0,0000;
160;1172,21;8530,91;865,38;19912,0000;65535,0000;25482,0000;5570,0000;0,0000;0,0000;0,0000;
161;1173,01;8525,05;871,24;12189,0000;65535,0000;17995,0000;5806,0000;0,0000;0,0000;0,0000;
162;1173,82;8519,19;877,09;9461,0000;65535,0000;15192,0000;5731,0000;0,0000;0,0000;0,0000;
163;1174,63;8513,35;882,94;18902,0000;65535,0000;24629,0000;5727,0000;0,0000;0,0000;0,0000;
164;1175,43;8507,51;888,78;16956,0000;65535,0000;22603,0000;5647,0000;0,0000;0,0000;0,0000;
165;1176,24;8501,68;894,61;11681,0000;65535,0000;17150,0000;5469,0000;0,0000;0,0000;0,0000;
166;1177,05;8495,85;900,44;11132,0000;65535,0000;16601,0000;5469,0000;0,0000;0,0000;0,0000;
167;1177,85;8490,04;906,25;15764,0000;65535,0000;21125,0000;5361,0000;0,0000;0,0000;0,0000;
168;1178,66;8484,23;912,06;13020,0000;65535,0000;18424,0000;5404,0000;0,0000;0,0000;0,0000;
169;1179,46;8478,42;917,86;18481,0000;65535,0000;23819,0000;5338,0000;0,0000;0,0000;0,0000;
170;1180,27;8472,63;923,66;14377,0000;65535,0000;19717,0000;5340,0000;0,0000;0,0000;0,0000;
171;1181,08;8466,84;929,45;13252,0000;65535,0000;18428,0000;5176,0000;0,0000;0,0000;0,0000;
172;1181,88;8461,06;935,23;8789,0000;65535,0000;13928,0000;5139,0000;0,0000;0,0000;0,0000;
173;1182,69;8455,29;941,00;18452,0000;65535,0000;23370,0000;4918,0000;0,0000;0,0000;0,0000;
174;1183,50;8449,53;946,76;18097,0000;65535,0000;23071,0000;4974,0000;0,0000;0,0000;0,0000;
175;1184,31;8443,77;952,52;16942,0000;65535,0000;21800,0000;4858,0000;0,0000;0,0000;0,0000;
176;1185,11;8438,02;958,27;6679,0000;65535,0000;11464,0000;4785,0000;0,0000;0,0000;0,0000;
177;1185,92;8432,28;964,01;20279,0000;65535,0000;25067,0000;4788,0000;0,0000;0,0000;0,0000;
178;1186,73;8426,54;969,75;13277,0000;65535,0000;18252,0000;4975,0000;0,0000;0,0000;0,0000;
179;1187,53;8420,81;975,48;17493,0000;65535,0000;22674,0000;5181,0000;0,0000;0,0000;0,0000;
180;1188,34;8415,09;981,20;19691,0000;65535,0000;25253,0000;5562,0000;0,0000;0,0000;0,0000;
181;1189,15;8409,38;986,91;14817,0000;65535,0000;20617,0000;5800,0000;0,0000;0,0000;0,0000;
182;1189,96;8403,67;992,62;14470,0000;65535,0000;21000,0000;6530,0000;0,0000;0,0000;0,0000;
183;1190,76;8397,97;998,32;12044,0000;65535,0000;19712,0000;7668,0000;0,0000;0,0000;0,0000;
184;1191,57;8392,28;1004,01;18116,0000;65535,0000;26517,0000;8401,0000;0,0000;0,0000;0,0000;
185;1192,38;8386,60;1009,69;20038,0000;65535,0000;27827,0000;7789,0000;0,0000;0,0000;0,0000;
186;1193,19;8380,92;1015,37;23034,0000;65535,0000;29497,0000;6463,0000;0,0000;0,0000;0,0000;
187;1193,99;8375,25;1021,04;16638,0000;65535,0000;22190,0000;5552,0000;0,0000;0,0000;0,0000;
188;1194,80;8369,59;1026,70;20314,0000;65535,0000;25631,0000;5317,0000;0,0000;0,0000;0,0000;
189;1195,61;8363,93;1032,36;20620,0000;65535,0000;25683,0000;5063,0000;0,0000;0,0000;0,0000;
190;1196,42;8358,28;1038,01;20987,0000;65535,0000;26077,0000;5090,0000;0,0000;0,0000;0,0000;
191;1197,23;8352,64;1043,65;8804,0000;65535,0000;13649,0000;4845,0000;0,0000;0,0000;0,0000;
192;1198,03;8347,01;1049,28;11946,0000;65535,0000;16765,0000;4819,0000;0,0000;0,0000;0,0000;
193;1198,84;8341,38;1054,91;18049,0000;65535,0000;22791,0000;4742,0000;0,0000;0,0000;0,0000;
194;1199,65;8335,76;1060,53;17910,0000;65535,0000;22640,0000;4730,0000;0,0000;0,0000;0,0000;
195;1200,46;8330,15;1066,14;13986,0000;65535,0000;18743,0000;4757,0000;0,0000;0,0000;0,0000;
196;1201,27;8324,54;1071,75;21982,0000;65535,0000;26562,0000;4580,0000;0,0000;0,0000;0,0000;
197;1202,08;8318,94;1077,35;17339,0000;65535,0000;22014,0000;4675,0000;0,0000;0,0000;0,0000;
198;1202,88;8313,35;1082,94;13388,0000;65535,0000;17969,0000;4581,0000;0,0000;0,0000;0,0000;
199;1203,69;8307,76;1088,52;16335,0000;65535,0000;20924,0000;4589,0000;0,0000;0,0000;0,0000;
200;1204,50;8302,19;1094,10;18128,0000;65535,0000;22365,0000;4237,0000;0,0000;0,0000;0,0000;
201;1205,31;8296,62;1099,67;16044,0000;65535,0000;20237,0000;4193,0000;0,0000;0,0000;0,0000;
202;1206,12;8291,05;1105,24;14887,0000;65535,0000;19024,0000;4137,0000;0,0000;0,0000;0,0000;
203;1206,93;8285,49;1110,79;13342,0000;65535,0000;17552,0000;4210,0000;0,0000;0,0000;0,0000;
204;1207,74;8279,94;1116,34;14567,0000;65535,0000;18772,0000;4205,0000;0,0000;0,0000;0,0000;
205;1208,55;8274,40;1121,89;20216,0000;65535,0000;24463,0000;4247,0000;0,0000;0,0000;0,0000;
206;1209,36;8268,87;1127,42;9087,0000;65535,0000;13086,0000;3999,0000;0,0000;0,0000;0,0000;
207;1210,17;8263,34;1132,95;21500,0000;65535,0000;25463,0000;3963,0000;0,0000;0,0000;0,0000;
208;1210,97;8257,81;1138,47;15410,0000;65535,0000;19539,0000;4129,0000;0,0000;0,0000;0,0000;
209;1211,78;8252,30;1143,99;21059,0000;65535,0000;25217,0000;4158,0000;0,0000;0,0000;0,0000;
210;1212,59;8246,79;1149,50;13434,0000;65535,0000;17672,0000;4238,0000;0,0000;0,0000;0,0000;
211;1213,40;8241,29;1155,00;15648,0000;65535,0000;20067,0000;4419,0000;0,0000;0,0000;0,0000;
212;1214,21;8235,79;1160,50;14435,0000;65535,0000;18575,0000;4140,0000;0,0000;0,0000;0,0000;
213;1215,02;8230,31;1165,98;14674,0000;65535,0000;19013,0000;4339,0000;0,0000;0,0000;0,0000;
214;1215,83;8224,82;1171,46;17144,0000;65535,0000;21329,0000;4185,0000;0,0000;0,0000;0,0000;
215;1216,64;8219,35;1176,94;18287,0000;65535,0000;22398,0000;4111,0000;0,0000;0,0000;0,0000;
216;1217,45;8213,88;1182,41;15395,0000;65535,0000;19479,0000;4084,0000;0,0000;0,0000;0,0000;
217;1218,26;8208,42;1187,87;22835,0000;65535,0000;26681,0000;3846,0000;0,0000;0,0000;0,0000;
218;1219,07;8202,97;1193,32;10959,0000;65535,0000;15070,0000;4111,0000;0,0000;0,0000;0,0000;
219;1219,88;8197,52;1198,77;16283,0000;65535,0000;20279,0000;3996,0000;0,0000;0,0000;0,0000;
220;1220,69;8192,08;1204,21;19867,0000;65535,0000;23937,0000;4070,0000;0,0000;0,0000;0,0000;
221;1221,50;8186,65;1209,64;11304,0000;65535,0000;15300,0000;3996,0000;0,0000;0,0000;0,0000;
222;1222,31;8181,22;1215,07;19120,0000;65535,0000;23010,0000;3890,0000;0,0000;0,0000;0,0000;
223;1223,12;8175,80;1220,49;18230,0000;65535,0000;22243,0000;4013,0000;0,0000;0,0000;0,0000;
224;1223,93;8170,38;1225,90;17755,0000;65535,0000;21781,0000;4026,0000;0,0000;0,0000;0,0000;
225;1224,74;8164,98;1231,31;8423,0000;65535,0000;12508,0000;4085,0000;0,0000;0,0000;0,0000;
226;1225,55;8159,58;1236,71;26069,0000;65535,0000;30031,0000;3962,0000;0,0000;0,0000;0,0000;
227;1226,36;8154,18;1242,11;21034,0000;65535,0000;25101,0000;4067,0000;0,0000;0,0000;0,0000;
228;1227,18;8148,80;1247,49;8739,0000;65535,0000;12706,0000;3967,0000;0,0000;0,0000;0,0000;
229;1227,99;8143,42;1252,87;14508,0000;65535,0000;18343,0000;3835,0000;0,0000;0,0000;0,0000;
230;1228,80;8138,04;1258,25;16695,0000;65535,0000;20563,0000;3868,0000;0,0000;0,0000;0,0000;
231;1229,61;8132,67;1263,61;16861,0000;65535,0000;20904,0000;4043,0000;0,0000;0,0000;0,0000;
232;1230,42;8127,31;1268,98;14452,0000;65535,0000;18176,0000;3724,0000;0,0000;0,0000;0,0000;
233;1231,23;8121,96;1274,33;17119,0000;65535,0000;21068,0000;3949,0000;0,0000;0,0000;0,0000;
234;1232,04;8116,61;1279,68;15225,0000;65535,0000;19371,0000;4146,0000;0,0000;0,0000;0,0000;
235;1232,85;8111,27;1285,02;17905,0000;65535,0000;21767,0000;3862,0000;0,0000;0,0000;0,0000;
236;1233,66;8105,94;1290,35;14096,0000;65535,0000;18159,0000;4063,0000;0,0000;0,0000;0,0000;
237;1234,48;8100,61;1295,68;18472,0000;65535,0000;22441,0000;3969,0000;0,0000;0,0000;0,0000;
238;1235,29;8095,29;1301,00;13403,0000;65535,0000;17423,0000;4020,0000;0,0000;0,0000;0,0000;
239;1236,10;8089,97;1306,32;12009,0000;65535,0000;16033,0000;4024,0000;0,0000;0,0000;0,0000;
240;1236,91;8084,66;1311,63;11746,0000;65535,0000;15513,0000;3767,0000;0,0000;0,0000;0,0000;
241;1237,72;8079,36;1316,93;21890,0000;65535,0000;25964,0000;4074,0000;0,0000;0,0000;0,0000;
242;1238,53;8074,07;1322,22;16414,0000;65535,0000;20172,0000;3758,0000;0,0000;0,0000;0,0000;
243;1239,35;8068,78;1327,51;17141,0000;65535,0000;21069,0000;3928,0000;0,0000;0,0000;0,0000;
244;1240,16;8063,49;1332,79;15205,0000;65535,0000;19297,0000;4092,0000;0,0000;0,0000;0,0000;
245;1240,97;8058,22;1338,07;11081,0000;65535,0000;15045,0000;3964,0000;0,0000;0,0000;0,0000;
246;1241,78;8052,95;1343,34;24110,0000;65535,0000;28061,0000;3951,0000;0,0000;0,0000;0,0000;
247;1242,59;8047,68;1348,60;15133,0000;65535,0000;19068,0000;3935,0000;0,0000;0,0000;0,0000;
248;1243,41;8042,43;1353,86;7710,0000;65535,0000;11739,0000;4029,0000;0,0000;0,0000;0,0000;
249;1244,22;8037,18;1359,11;19513,0000;65535,0000;23454,0000;3941,0000;0,0000;0,0000;0,0000;
250;1245,03;8031,93;1364,36;12880,0000;65535,0000;16843,0000;3963,0000;0,0000;0,0000;0,0000;
251;1245,84;8026,69;1369,59;23265,0000;65535,0000;27282,0000;4017,0000;0,0000;0,0000;0,0000;
252;1246,66;8021,46;1374,83;15482,0000;65535,0000;19527,0000;4045,0000;0,0000;0,0000;0,0000;
253;1247,47;8016,24;1380,05;16109,0000;65535,0000;19893,0000;3784,0000;0,0000;0,0000;0,0000;
254;1248,28;8011,02;1385,27;14837,0000;65535,0000;18852,0000;4015,0000;0,0000;0,0000;0,0000;
255;1249,09;8005,81;1390,48;9271,0000;65535,0000;13182,0000;3911,0000;0,0000;0,0000;0,0000;
256;1249,91;8000,60;1395,69;26194,0000;65535,0000;30194,0000;4000,0000;0,0000;0,0000;0,0000;
257;1250,72;7995,40;1400,89;13822,0000;65535,0000;17755,0000;3933,0000;0,0000;0,0000;0,0000;
258;1251,53;7990,20;1406,08;13964,0000;65535,0000;17805,0000;3841,0000;0,0000;0,0000;0,0000;
259;1252,35;7985,02;1411,27;14275,0000;65535,0000;18128,0000;3853,0000;0,0000;0,0000;0,0000;
260;1253,16;7979,84;1416,45;15957,0000;65535,0000;19995,0000;4038,0000;0,0000;0,0000;0,0000;
261;1253,97;7974,66;1421,63;23503,0000;65535,0000;27326,0000;3823,0000;0,0000;0,0000;0,0000;
262;1254,79;7969,49;1426,80;13213,0000;65535,0000;17218,0000;4005,0000;0,0000;0,0000;0,0000;
263;1255,60;7964,33;1431,96;14968,0000;65535,0000;18884,0000;3916,0000;0,0000;0,0000;0,0000;
264;1256,41;7959,17;1437,12;19094,0000;65535,0000;23115,0000;4021,0000;0,0000;0,0000;0,0000;
265;1257,23;7954,02;1442,27;9539,0000;65535,0000;13554,0000;4015,0000;0,0000;0,0000;0,0000;
266;1258,04;7948,88;1447,41;14464,0000;65535,0000;18484,0000;4020,0000;0,0000;0,0000;0,0000;
267;1258,85;7943,74;1452,55;19551,0000;65535,0000;23500,0000;3949,0000;0,0000;0,0000;0,0000;
268;1259,67;7938,61;1457,68;18955,0000;65535,0000;23195,0000;4240,0000;0,0000;0,0000;0,0000;
269;1260,48;7933,48;1462,81;17352,0000;65535,0000;21509,0000;4157,0000;0,0000;0,0000;0,0000;
270;1261,29;7928,36;1467,93;18931,0000;65535,0000;22892,0000;3961,0000;0,0000;0,0000;0,0000;
271;1262,11;7923,25;1473,04;15134,0000;65535,0000;19139,0000;4005,0000;0,0000;0,0000;0,0000;
272;1262,92;7918,14;1478,15;8901,0000;65535,0000;12862,0000;3961,0000;0,0000;0,0000;0,0000;
273;1263,74;7913,04;1483,25;12788,0000;65535,0000;16803,0000;4015,0000;0,0000;0,0000;0,0000;
274;1264,55;7907,94;1488,34;20370,0000;65535,0000;24126,0000;3756,0000;0,0000;0,0000;0,0000;
275;1265,37;7902,86;1493,43;23564,0000;65535,0000;27322,0000;3758,0000;0,0000;0,0000;0,0000;
276;1266,18;7897,77;1498,52;17475,0000;65535,0000;21140,0000;3665,0000;0,0000;0,0000;0,0000;
277;1266,99;7892,69;1503,59;11879,0000;65535,0000;15625,0000;3746,0000;0,0000;0,0000;0,0000;
278;1267,81;7887,62;1508,66;20563,0000;65535,0000;24351,0000;3788,0000;0,0000;0,0000;0,0000;
279;1268,62;7882,56;1513,73;12140,0000;65535,0000;15851,0000;3711,0000;0,0000;0,0000;0,0000;
280;1269,44;7877,50;1518,79;11453,0000;65535,0000;15109,0000;3656,0000;0,0000;0,0000;0,0000;
281;1270,25;7872,45;1523,84;15605,0000;65535,0000;19302,0000;3697,0000;0,0000;0,0000;0,0000;
282;1271,07;7867,40;1528,89;13921,0000;65535,0000;17655,0000;3734,0000;0,0000;0,0000;0,0000;
283;1271,88;7862,36;1533,93;13430,0000;65535,0000;17290,0000;3860,0000;0,0000;0,0000;0,0000;
284;1272,70;7857,32;1538,97;27536,0000;65535,0000;31331,0000;3795,0000;0,0000;0,0000;0,0000;
285;1273,51;7852,29;1543,99;19415,0000;65535,0000;23319,0000;3904,0000;0,0000;0,0000;0,0000;
286;1274,33;7847,27;1549,02;2358,0000;65535,0000;6259,0000;3901,0000;0,0000;0,0000;0,0000;
287;1275,14;7842,25;1554,03;17314,0000;65535,0000;21463,0000;4149,0000;0,0000;0,0000;0,0000;
288;1275,96;7837,24;1559,05;12179,0000;65535,0000;16332,0000;4153,0000;0,0000;0,0000;0,0000;
289;1276,77;7832,24;1564,05;12393,0000;65535,0000;16608,0000;4215,0000;0,0000;0,0000;0,0000;
290;1277,59;7827,24;1569,05;19567,0000;65535,0000;23725,0000;4158,0000;0,0000;0,0000;0,0000;
291;1278,41;7822,24;1574,04;17951,0000;65535,0000;22211,0000;4260,0000;0,0000;0,0000;0,0000;
292;1279,22;7817,26;1579,03;23780,0000;65535,0000;28199,0000;4419,0000;0,0000;0,0000;0,0000;
293;1280,04;7812,27;1584,01;7169,0000;65535,0000;11680,0000;4511,0000;0,0000;0,0000;0,0000;
294;1280,85;7807,30;1588,99;6008,0000;65535,0000;10620,0000;4612,0000;0,0000;0,0000;0,0000;
295;1281,67;7802,33;1593,96;12593,0000;65535,0000;17345,0000;4752,0000;0,0000;0,0000;0,0000;
296;1282,48;7797,36;1598,93;20142,0000;65535,0000;24933,0000;4791,0000;0,0000;0,0000;0,0000;
297;1283,30;7792,40;1603,88;17892,0000;65535,0000;22912,0000;5020,0000;0,0000;0,0000;0,0000;
298;1284,12;7787,45;1608,84;21285,0000;65535,0000;26310,0000;5025,0000;0,0000;0,0000;0,0000;
299;1284,93;7782,50;1613,78;19436,0000;65535,0000;24546,0000;5110,0000;0,0000;0,0000;0,0000;
300;1285,75;7777,56;1618,73;16864,0000;65535,0000;21785,0000;4921,0000;0,0000;0,0000;0,0000;
301;1286,57;7772,63;1623,66;18784,0000;65535,0000;24051,0000;5267,0000;0,0000;0,0000;0,0000;
302;1287,38;7767,70;1628,59;15072,0000;65535,0000;20164,0000;5092,0000;0,0000;0,0000;0,0000;
303;1288,20;7762,77;1633,51;19178,0000;65535,0000;24428,0000;5250,0000;0,0000;0,0000;0,0000;
304;1289,02;7757,86;1638,43;13509,0000;65535,0000;18669,0000;5160,0000;0,0000;0,0000;0,0000;
305;1289,83;7752,94;1643,34;14091,0000;65535,0000;19309,0000;5218,0000;0,0000;0,0000;0,0000;
306;1290,65;7748,04;1648,25;15444,0000;65535,0000;20590,0000;5146,0000;0,0000;0,0000;0,0000;
307;1291,47;7743,14;1653,15;16397,0000;65535,0000;21523,0000;5126,0000;0,0000;0,0000;0,0000;
308;1292,28;7738,24;1658,05;16385,0000;65535,0000;21480,0000;5095,0000;0,0000;0,0000;0,0000;
309;1293,10;7733,35;1662,94;20771,0000;65535,0000;25808,0000;5037,0000;0,0000;0,0000;0,0000;
310;1293,92;7728,47;1667,82;15314,0000;65535,0000;20214,0000;4900,0000;0,0000;0,0000;0,0000;
311;1294,73;7723,59;1672,70;17897,0000;65535,0000;22640,0000;4743,0000;0,0000;0,0000;0,0000;
312;1295,55;7718,72;1677,57;14770,0000;65535,0000;19412,0000;4642,0000;0,0000;0,0000;0,0000;
313;1296,37;7713,85;1682,44;11558,0000;65535,0000;16085,0000;4527,0000;0,0000;0,0000;0,0000;
314;1297,19;7708,99;1687,30;13456,0000;65535,0000;17791,0000;4335,0000;0,0000;0,0000;0,0000;
315;1298,00;7704,13;1692,16;18310,0000;65535,0000;22337,0000;4027,0000;0,0000;0,0000;0,0000;
316;1298,82;7699,28;1697,01;23851,0000;65535,0000;27588,0000;3737,0000;0,0000;0,0000;0,0000;
317;1299,64;7694,44;1701,85;16312,0000;65535,0000;20065,0000;3753,0000;0,0000;0,0000;0,0000;
318;1300,46;7689,60;1706,69;5124,0000;65535,0000;8719,0000;3595,0000;0,0000;0,0000;0,0000;
319;1301,28;7684,77;1711,52;19058,0000;65535,0000;22454,0000;3396,0000;0,0000;0,0000;0,0000;
320;1302,09;7679,94;1716,35;19694,0000;65535,0000;23086,0000;3392,0000;0,0000;0,0000;0,0000;
321;1302,91;7675,12;1721,17;22552,0000;65535,0000;25874,0000;3322,0000;0,0000;0,0000;0,0000;
322;1303,73;7670,30;1725,99;22909,0000;65535,0000;26143,0000;3234,0000;0,0000;0,0000;0,0000;
323;1304,55;7665,49;1730,80;12131,0000;65535,0000;15228,0000;3097,0000;0,0000;0,0000;0,0000;
324;1305,37;7660,68;1735,60;10301,0000;65535,0000;13402,0000;3101,0000;0,0000;0,0000;0,0000;
325;1306,18;7655,88;1740,40;15192,0000;65535,0000;18197,0000;3005,0000;0,0000;0,0000;0,0000;
326;1307,00;7651,09;1745,20;17645,0000;65535,0000;20548,0000;2903,0000;0,0000;0,0000;0,0000;
327;1307,82;7646,30;1749,99;25412,0000;65535,0000;28216,0000;2804,0000;0,0000;0,0000;0,0000;
328;1308,64;7641,52;1754,77;24098,0000;65535,0000;27132,0000;3034,0000;0,0000;0,0000;0,0000;
329;1309,46;7636,74;1759,55;17909,0000;65535,0000;20831,0000;2922,0000;0,0000;0,0000;0,0000;
330;1310,28;7631,97;1764,32;21082,0000;65535,0000;23872,0000;2790,0000;0,0000;0,0000;0,0000;
331;1311,10;7627,20;1769,09;14467,0000;65535,0000;17241,0000;2774,0000;0,0000;0,0000;0,0000;
332;1311,92;7622,44;1773,85;12141,0000;65535,0000;14926,0000;2785,0000;0,0000;0,0000;0,0000;
333;1312,74;7617,68;1778,61;10339,0000;65535,0000;13072,0000;2733,0000;0,0000;0,0000;0,0000;
334;1313,55;7612,93;1783,36;9664,0000;65535,0000;12439,0000;2775,0000;0,0000;0,0000;0,0000;
335;1314,37;7608,19;1788,10;16372,0000;65535,0000;18833,0000;2461,0000;0,0000;0,0000;0,0000;
336;1315,19;7603,45;1792,84;19104,0000;65535,0000;21756,0000;2652,0000;0,0000;0,0000;0,0000;
337;1316,01;7598,71;1797,58;16969,0000;65535,0000;19515,0000;2546,0000;0,0000;0,0000;0,0000;
338;1316,83;7593,98;1802,31;12310,0000;65535,0000;14743,0000;2433,0000;0,0000;0,0000;0,0000;
339;1317,65;7589,26;1807,03;12306,0000;65535,0000;14910,0000;2604,0000;0,0000;0,0000;0,0000;
340;1318,47;7584,54;1811,75;21780,0000;65535,0000;24272,0000;2492,0000;0,0000;0,0000;0,0000;
341;1319,29;7579,83;1816,46;10251,0000;65535,0000;12564,0000;2313,0000;0,0000;0,0000;0,0000;
342;1320,11;7575,12;1821,17;5865,0000;65535,0000;8078,0000;2213,0000;0,0000;0,0000;0,0000;
343;1320,93;7570,42;1825,87;15033,0000;65535,0000;17342,0000;2309,0000;0,0000;0,0000;0,0000;
344;1321,75;7565,72;1830,57;18495,0000;65535,0000;20758,0000;2263,0000;0,0000;0,0000;0,0000;
345;1322,57;7561,03;1835,26;15080,0000;65535,0000;17201,0000;2121,0000;0,0000;0,0000;0,0000;
346;1323,39;7556,35;1839,94;19443,0000;65535,0000;21773,0000;2330,0000;0,0000;0,0000;0,0000;
347;1324,21;7551,66;1844,62;16022,0000;65535,0000;18068,0000;2046,0000;0,0000;0,0000;0,0000;
348;1325,03;7546,99;1849,30;15849,0000;65535,0000;17944,0000;2095,0000;0,0000;0,0000;0,0000;
349;1325,85;7542,32;1853,97;21750,0000;65535,0000;23986,0000;2236,0000;0,0000;0,0000;0,0000;
350;1326,67;7537,65;1858,63;16264,0000;65535,0000;18503,0000;2239,0000;0,0000;0,0000;0,0000;
351;1327,49;7532,99;1863,29;12099,0000;65535,0000;14096,0000;1997,0000;0,0000;0,0000;0,0000;
352;1328,31;7528,34;1867,95;19135,0000;65535,0000;21134,0000;1999,0000;0,0000;0,0000;0,0000;
353;1329,13;7523,69;1872,60;11441,0000;65535,0000;13495,0000;2054,0000;0,0000;0,0000;0,0000;
354;1329,96;7519,05;1877,24;12473,0000;65535,0000;14490,0000;2017,0000;0,0000;0,0000;0,0000;
355;1330,78;7514,41;1881,88;19171,0000;65535,0000;21130,0000;1959,0000;0,0000;0,0000;0,0000;
356;1331,60;7509,77;1886,51;13104,0000;65535,0000;15080,0000;1976,0000;0,0000;0,0000;0,0000;
357;1332,42;7505,15;1891,14;21121,0000;65535,0000;23030,0000;1909,0000;0,0000;0,0000;0,0000;
358;1333,24;7500,52;1895,76;7997,0000;65535,0000;9834,0000;1837,0000;0,0000;0,0000;0,0000;
359;1334,06;7495,91;1900,38;12468,0000;65535,0000;14376,0000;1908,0000;0,0000;0,0000;0,0000;
360;1334,88;7491,29;1904,99;19803,0000;65535,0000;21638,0000;1835,0000;0,0000;0,0000;0,0000;
361;1335,70;7486,69;1909,60;21821,0000;65535,0000;23616,0000;1795,0000;0,0000;0,0000;0,0000;
362;1336,53;7482,08;1914,20;15253,0000;65535,0000;17127,0000;1874,0000;0,0000;0,0000;0,0000;
363;1337,35;7477,49;1918,80;13634,0000;65535,0000;15486,0000;1852,0000;0,0000;0,0000;0,0000;
364;1338,17;7472,89;1923,39;16072,0000;65535,0000;17889,0000;1817,0000;0,0000;0,0000;0,0000;
365;1338,99;7468,31;1927,98;13093,0000;65535,0000;14875,0000;1782,0000;0,0000;0,0000;0,0000;
366;1339,81;7463,73;1932,56;14426,0000;65535,0000;16113,0000;1687,0000;0,0000;0,0000;0,0000;
367;1340,64;7459,15;1937,14;23948,0000;65535,0000;25504,0000;1556,0000;0,0000;0,0000;0,0000;
368;1341,46;7454,58;1941,71;20143,0000;65535,0000;21909,0000;1766,0000;0,0000;0,0000;0,0000;
369;1342,28;7450,01;1946,28;13760,0000;65535,0000;15601,0000;1841,0000;0,0000;0,0000;0,0000;
370;1343,10;7445,45;1950,84;21351,0000;65535,0000;22974,0000;1623,0000;0,0000;0,0000;0,0000;
371;1343,92;7440,90;1955,39;10456,0000;65535,0000;11970,0000;1514,0000;0,0000;0,0000;0,0000;
372;1344,75;7436,34;1959,94;24248,0000;65535,0000;25697,0000;1449,0000;0,0000;0,0000;0,0000;
373;1345,57;7431,80;1964,49;13604,0000;65535,0000;15103,0000;1499,0000;0,0000;0,0000;0,0000;
374;1346,39;7427,26;1969,03;13849,0000;65535,0000;15400,0000;1551,0000;0,0000;0,0000;0,0000;
375;1347,21;7422,72;1973,57;9562,0000;65535,0000;11166,0000;1604,0000;0,0000;0,0000;0,0000;
376;1348,04;7418,19;1978,10;10297,0000;65535,0000;11758,0000;1461,0000;0,0000;0,0000;0,0000;
377;1348,86;7413,67;1982,62;19732,0000;65535,0000;21328,0000;1596,0000;0,0000;0,0000;0,0000;
378;1349,68;7409,14;1987,14;16554,0000;65535,0000;18083,0000;1529,0000;0,0000;0,0000;0,0000;
379;1350,51;7404,63;1991,66;7870,0000;65535,0000;9347,0000;1477,0000;0,0000;0,0000;0,0000;
380;1351,33;7400,12;1996,17;21730,0000;65535,0000;23132,0000;1402,0000;0,0000;0,0000;0,0000;
381;1352,15;7395,61;2000,68;19247,0000;65535,0000;20767,0000;1520,0000;0,0000;0,0000;0,0000;
382;1352,98;7391,11;2005,18;12060,0000;65535,0000;13567,0000;1507,0000;0,0000;0,0000;0,0000;
383;1353,80;7386,62;2009,67;20052,0000;65535,0000;21441,0000;1389,0000;0,0000;0,0000;0,0000;
384;1354,62;7382,13;2014,16;11947,0000;65535,0000;13459,0000;1512,0000;0,0000;0,0000;0,0000;
385;1355,45;7377,64;2018,65;18758,0000;65535,0000;20052,0000;1294,0000;0,0000;0,0000;0,0000;
386;1356,27;7373,16;2023,13;21798,0000;65535,0000;23208,0000;1410,0000;0,0000;0,0000;0,0000;
387;1357,09;7368,68;2027,61;14091,0000;65535,0000;15436,0000;1345,0000;0,0000;0,0000;0,0000;
388;1357,92;7364,21;2032,08;14506,0000;65535,0000;15815,0000;1309,0000;0,0000;0,0000;0,0000;
389;1358,74;7359,75;2036,54;19178,0000;65535,0000;20569,0000;1391,0000;0,0000;0,0000;0,0000;
390;1359,57;7355,28;2041,00;21930,0000;65535,0000;23329,0000;1399,0000;0,0000;0,0000;0,0000;
391;1360,39;7350,83;2045,46;16778,0000;65535,0000;18222,0000;1444,0000;0,0000;0,0000;0,0000;
392;1361,22;7346,38;2049,91;18005,0000;65535,0000;19323,0000;1318,0000;0,0000;0,0000;0,0000;
393;1362,04;7341,93;2054,36;16356,0000;65535,0000;17600,0000;1244,0000;0,0000;0,0000;0,0000;
394;1362,86;7337,49;2058,80;21238,0000;65535,0000;22413,0000;1175,0000;0,0000;0,0000;0,0000;
395;1363,69;7333,05;2063,24;15663,0000;65535,0000;17028,0000;1365,0000;0,0000;0,0000;0,0000;
396;1364,51;7328,62;2067,67;13151,0000;65535,0000;14148,0000;997,0000;0,0000;0,0000;0,0000;
397;1365,34;7324,19;2072,09;22990,0000;65535,0000;24223,0000;1233,0000;0,0000;0,0000;0,0000;
398;1366,16;7319,77;2076,52;18564,0000;65535,0000;19859,0000;1295,0000;0,0000;0,0000;0,0000;
399;1366,99;7315,36;2080,93;19665,0000;65535,0000;20838,0000;1173,0000;0,0000;0,0000;0,0000;
400;1367,81;7310,94;2085,35;18326,0000;65535,0000;19471,0000;1145,0000;0,0000;0,0000;0,0000;
401;1368,64;7306,54;2089,75;11318,0000;65535,0000;12436,0000;1118,0000;0,0000;0,0000;0,0000;
402;1369,46;7302,13;2094,16;19840,0000;65535,0000;20781,0000;941,0000;0,0000;0,0000;0,0000;
403;1370,29;7297,74;2098,55;10795,0000;65535,0000;11825,0000;1030,0000;0,0000;0,0000;0,0000;
404;1371,11;7293,34;2102,95;1821,0000;65535,0000;2992,0000;1171,0000;0,0000;0,0000;0,0000;
405;1371,94;7288,95;2107,33;15970,0000;65535,0000;17042,0000;1072,0000;0,0000;0,0000;0,0000;
406;1372,76;7284,57;2111,72;16808,0000;65535,0000;17776,0000;968,0000;0,0000;0,0000;0,0000;
407;1373,59;7280,19;2116,10;9873,0000;65535,0000;10944,0000;1071,0000;0,0000;0,0000;0,0000;
408;1374,42;7275,82;2120,47;5542,0000;65535,0000;6422,0000;880,0000;0,0000;0,0000;0,0000;
409;1375,24;7271,45;2124,84;26395,0000;65535,0000;27183,0000;788,0000;0,0000;0,0000;0,0000;
410;1376,07;7267,08;2129,20;13673,0000;65535,0000;14495,0000;822,0000;0,0000;0,0000;0,0000;
411;1376,89;7262,72;2133,56;13408,0000;65535,0000;14025,0000;617,0000;0,0000;0,0000;0,0000;
412;1377,72;7258,37;2137,92;20765,0000;65535,0000;21408,0000;643,0000;0,0000;0,0000;0,0000;
413;1378,55;7254,02;2142,27;16705,0000;65535,0000;17325,0000;620,0000;0,0000;0,0000;0,0000;
414;1379,37;7249,67;2146,61;15904,0000;65535,0000;16559,0000;655,0000;0,0000;0,0000;0,0000;
415;1380,20;7245,33;2150,95;20184,0000;65535,0000;20810,0000;626,0000;0,0000;0,0000;0,0000;
416;1381,03;7241,00;2155,29;19627,0000;65535,0000;20043,0000;416,0000;0,0000;0,0000;0,0000;
417;1381,85;7236,67;2159,62;12773,0000;65535,0000;13249,0000;476,0000;0,0000;0,0000;0,0000;
418;1382,68;7232,34;2163,95;12408,0000;65535,0000;12622,0000;214,0000;0,0000;0,0000;0,0000;
419;1383,51;7228,02;2168,27;20224,0000;65535,0000;20657,0000;433,0000;0,0000;0,0000;0,0000;
420;1384,33;7223,70;2172,59;16987,0000;65535,0000;17466,0000;479,0000;0,0000;0,0000;0,0000;
421;1385,16;7219,39;2176,90;3003,0000;65535,0000;3192,0000;189,0000;0,0000;0,0000;0,0000;
422;1385,99;7215,08;2181,21;12468,0000;65535,0000;12821,0000;353,0000;0,0000;0,0000;0,0000;
423;1386,81;7210,78;2185,51;15484,0000;65535,0000;15745,0000;261,0000;0,0000;0,0000;0,0000;
424;1387,64;7206,48;2189,81;11919,0000;65535,0000;12037,0000;118,0000;0,0000;0,0000;0,0000;
425;1388,47;7202,18;2194,10;7958,0000;65535,0000;8131,0000;173,0000;0,0000;0,0000;0,0000;
426;1389,30;7197,89;2198,39;23556,0000;65535,0000;23473,0000;-83,0000;0,0000;0,0000;0,0000;
427;1390,12;7193,61;2202,68;24497,0000;65535,0000;24652,0000;155,0000;0,0000;0,0000;0,0000;
428;1390,95;7189,33;2206,96;17733,0000;65535,0000;17915,0000;182,0000;0,0000;0,0000;0,0000;
429;1391,78;7185,05;2211,23;19544,0000;65535,0000;19634,0000;90,0000;0,0000;0,0000;0,0000;
430;1392,61;7180,78;2215,51;14733,0000;65535,0000;14754,0000;21,0000;0,0000;0,0000;0,0000;
431;1393,43;7176,52;2219,77;15457,0000;65535,0000;15396,0000;-61,0000;0,0000;0,0000;0,0000;
432;1394,26;7172,25;2224,03;13235,0000;65535,0000;13242,0000;7,0000;0,0000;0,0000;0,0000;
433;1395,09;7168,00;2228,29;19416,0000;65535,0000;19347,0000;-69,0000;0,0000;0,0000;0,0000;
434;1395,92;7163,74;2232,54;22897,0000;65535,0000;22896,0000;-1,0000;0,0000;0,0000;0,0000;
435;1396,75;7159,50;2236,79;14912,0000;65535,0000;14819,0000;-93,0000;0,0000;0,0000;0,0000;
436;1397,57;7155,25;2241,04;17369,0000;65535,0000;17192,0000;-177,0000;0,0000;0,0000;0,0000;
437;1398,40;7151,01;2245,28;16968,0000;65535,0000;16995,0000;27,0000;0,0000;0,0000;0,0000;
438;1399,23;7146,78;2249,51;20879,0000;65535,0000;20957,0000;78,0000;0,0000;0,0000;0,0000;
439;1400,06;7142,55;2253,74;17492,0000;65535,0000;17360,0000;-132,0000;0,0000;0,0000;0,0000;
440;1400,89;7138,32;2257,97;13084,0000;65535,0000;13071,0000;-13,0000;0,0000;0,0000;0,0000;
441;1401,72;7134,10;2262,19;9687,0000;65535,0000;9519,0000;-168,0000;0,0000;0,0000;0,0000;
442;1402,55;7129,89;2266,40;23760,0000;65535,0000;23686,0000;-74,0000;0,0000;0,0000;0,0000;
443;1403,38;7125,67;2270,61;18863,0000;65535,0000;18621,0000;-242,0000;0,0000;0,0000;0,0000;
444;1404,21;7121,47;2274,82;22397,0000;65535,0000;22362,0000;-35,0000;0,0000;0,0000;0,0000;
445;1405,03;7117,26;2279,03;13912,0000;65535,0000;13646,0000;-266,0000;0,0000;0,0000;0,0000;
446;1405,86;7113,06;2283,22;21123,0000;65535,0000;21027,0000;-96,0000;0,0000;0,0000;0,0000;
447;1406,69;7108,87;2287,42;12133,0000;65535,0000;12143,0000;10,0000;0,0000;0,0000;0,0000;
448;1407,52;7104,68;2291,61;11336,0000;65535,0000;11152,0000;-184,0000;0,0000;0,0000;0,0000;
449;1408,35;7100,50;2295,79;16333,0000;65535,0000;16192,0000;-141,0000;0,0000;0,0000;0,0000;
450;1409,18;7096,31;2299,97;18169,0000;65535,0000;17989,0000;-180,0000;0,0000;0,0000;0,0000;
451;1410,01;7092,14;2304,15;9985,0000;65535,0000;9936,0000;-49,0000;0,0000;0,0000;0,0000;
452;1410,84;7087,97;2308,32;20815,0000;65535,0000;20835,0000;20,0000;0,0000;0,0000;0,0000;
453;1411,67;7083,80;2312,49;14569,0000;65535,0000;14416,0000;-153,0000;0,0000;0,0000;0,0000;
454;1412,50;7079,64;2316,65;14886,0000;65535,0000;14810,0000;-76,0000;0,0000;0,0000;0,0000;
455;1413,33;7075,48;2320,81;19555,0000;65535,0000;19452,0000;-103,0000;0,0000;0,0000;0,0000;
456;1414,16;7071,32;2324,97;13348,0000;65535,0000;13223,0000;-125,0000;0,0000;0,0000;0,0000;
457;1414,99;7067,17;2329,12;15210,0000;65535,0000;15016,0000;-194,0000;0,0000;0,0000;0,0000;
458;1415,82;7063,03;2333,26;17365,0000;65535,0000;16064,0000;-1301,0000;0,0000;0,0000;0,0000;
459;1416,65;7058,89;2337,40;26309,0000;65535,0000;26032,0000;-277,0000;0,0000;0,0000;0,0000;
460;1417,48;7054,75;2341,54;19344,0000;65535,0000;19159,0000;-185,0000;0,0000;0,0000;0,0000;
461;1418,32;7050,62;2345,67;13403,0000;65535,0000;13239,0000;-164,0000;0,0000;0,0000;0,0000;
462;1419,15;7046,49;2349,80;14941,0000;65535,0000;14815,0000;-126,0000;0,0000;0,0000;0,0000;
463;1419,98;7042,37;2353,92;21912,0000;65535,0000;21578,0000;-334,0000;0,0000;0,0000;0,0000;
464;1420,81;7038,25;2358,04;20584,0000;65535,0000;20677,0000;93,0000;0,0000;0,0000;0,0000;
465;1421,64;7034,13;2362,16;17920,0000;65535,0000;17777,0000;-143,0000;0,0000;0,0000;0,0000;
466;1422,47;7030,02;2366,27;20609,0000;65535,0000;20457,0000;-152,0000;0,0000;0,0000;0,0000;
467;1423,30;7025,91;2370,37;21483,0000;65535,0000;21375,0000;-108,0000;0,0000;0,0000;0,0000;
468;1424,13;7021,81;2374,48;19156,0000;65535,0000;19125,0000;-31,0000;0,0000;0,0000;0,0000;
469;1424,97;7017,71;2378,57;13596,0000;65535,0000;13480,0000;-116,0000;0,0000;0,0000;0,0000;
470;1425,80;7013,62;2382,67;12286,0000;65535,0000;12145,0000;-141,0000;0,0000;0,0000;0,0000;
471;1426,63;7009,53;2386,76;13442,0000;65535,0000;13235,0000;-207,0000;0,0000;0,0000;0,0000;
472;1427,46;7005,45;2390,84;18727,0000;65535,0000;18509,0000;-218,0000;0,0000;0,0000;0,0000;
473;1428,29;7001,37;2394,92;8940,0000;65535,0000;8963,0000;23,0000;0,0000;0,0000;0,0000;
474;1429,12;6997,29;2399,00;19563,0000;65535,0000;19423,0000;-140,0000;0,0000;0,0000;0,0000;
475;1429,96;6993,22;2403,07;13778,0000;65535,0000;13695,0000;-83,0000;0,0000;0,0000;0,0000;
476;1430,79;6989,15;2407,14;16709,0000;65535,0000;16657,0000;-52,0000;0,0000;0,0000;0,0000;
477;1431,62;6985,08;2411,20;14744,0000;65535,0000;14649,0000;-95,0000;0,0000;0,0000;0,0000;
478;1432,45;6981,03;2415,26;11217,0000;65535,0000;11174,0000;-43,0000;0,0000;0,0000;0,0000;
479;1433,29;6976,97;2419,32;19150,0000;65535,0000;19089,0000;-61,0000;0,0000;0,0000;0,0000;
480;1434,12;6972,92;2423,37;11888,0000;65535,0000;11766,0000;-122,0000;0,0000;0,0000;0,0000;
481;1434,95;6968,87;2427,42;10691,0000;65535,0000;10552,0000;-139,0000;0,0000;0,0000;0,0000;
482;1435,79;6964,83;2431,46;13780,0000;65535,0000;13718,0000;-62,0000;0,0000;0,0000;0,0000;
483;1436,62;6960,79;2435,50;15609,0000;65535,0000;15506,0000;-103,0000;0,0000;0,0000;0,0000;
484;1437,45;6956,76;2439,53;18510,0000;65535,0000;18321,0000;-189,0000;0,0000;0,0000;0,0000;
485;1438,28;6952,73;2443,56;20719,0000;65535,0000;20532,0000;-187,0000;0,0000;0,0000;0,0000;
486;1439,12;6948,70;2447,59;14462,0000;65535,0000;14200,0000;-262,0000;0,0000;0,0000;0,0000;
487;1439,95;6944,68;2451,61;10055,0000;65535,0000;9922,0000;-133,0000;0,0000;0,0000;0,0000;
488;1440,78;6940,66;2455,63;12820,0000;65535,0000;12712,0000;-108,0000;0,0000;0,0000;0,0000;
489;1441,62;6936,65;2459,64;19343,0000;65535,0000;19224,0000;-119,0000;0,0000;0,0000;0,0000;
490;1442,45;6932,64;2463,65;10243,0000;65535,0000;10173,0000;-70,0000;0,0000;0,0000;0,0000;
491;1443,29;6928,63;2467,65;8418,0000;65535,0000;8355,0000;-63,0000;0,0000;0,0000;0,0000;
492;1444,12;6924,63;2471,65;14472,0000;65535,0000;14212,0000;-260,0000;0,0000;0,0000;0,0000;
493;1444,95;6920,64;2475,65;19843,0000;65535,0000;19668,0000;-175,0000;0,0000;0,0000;0,0000;
494;1445,79;6916,64;2479,64;29136,0000;65535,0000;28849,0000;-287,0000;0,0000;0,0000;0,0000;
495;1446,62;6912,66;2483,63;14511,0000;65535,0000;14316,0000;-195,0000;0,0000;0,0000;0,0000;
496;1447,46;6908,67;2487,62;16211,0000;65535,0000;16051,0000;-160,0000;0,0000;0,0000;0,0000;
497;1448,29;6904,69;2491,60;14747,0000;65535,0000;14592,0000;-155,0000;0,0000;0,0000;0,0000;
498;1449,13;6900,72;2495,57;20868,0000;65535,0000;20759,0000;-109,0000;0,0000;0,0000;0,0000;
499;1449,96;6896,74;2499,55;16314,0000;65535,0000;16196,0000;-118,0000;0,0000;0,0000;0,0000;
500;1450,79;6892,78;2503,51;7530,0000;65535,0000;7394,0000;-136,0000;0,0000;0,0000;0,0000;
501;   ;   ;   ;15250,0000;65535,0000;15163,0000;-87,0000;0,0000;0,0000;0,0000;
502;   ;   ;   ;3960,0000;65535,0000;3852,0000;-108,0000;0,0000;0,0000;0,0000;
503;   ;   ;   ;17423,0000;65535,0000;17243,0000;-180,0000;0,0000;0,0000;0,0000;
504;   ;   ;   ;14926,0000;65535,0000;14773,0000;-153,0000;0,0000;0,0000;0,0000;
505;   ;   ;   ;14915,0000;65535,0000;14723,0000;-192,0000;0,0000;0,0000;0,0000;
506;   ;   ;   ;11081,0000;65535,0000;10946,0000;-135,0000;0,0000;0,0000;0,0000;
507;   ;   ;   ;13188,0000;65535,0000;13063,0000;-125,0000;0,0000;0,0000;0,0000;
508;   ;   ;   ;21262,0000;65535,0000;21363,0000;101,0000;0,0000;0,0000;0,0000;
509;   ;   ;   ;16867,0000;65535,0000;16726,0000;-141,0000;0,0000;0,0000;0,0000;
510;   ;   ;   ;16534,0000;65535,0000;16455,0000;-79,0000;0,0000;0,0000;0,0000;
511;   ;   ;   ;13271,0000;65535,0000;13328,0000;57,0000;0,0000;0,0000;0,0000;
